116
116
116
116
115
115
115
115
115
116
116
116
116
116
116
116
116
116
116
116
116
117
117
117
117
117
117
117
117
117
117
117
117
117
117
117
117
117
117
117
117
117
117
117
117
118
118
118
119
120
120
120
121
121
122
122
123
124
124
125
126
128
129
130
131
131
131
129
128
127
126
125
124
124
123
122
121
120
118
117
116
115
115
115
115
115
116
116
116
116
116
116
116
116
116
116
116
117
117
116
116
115
113
112
110
110
111
116
125
140
161
187
214
237
245
245
245
233
199
153
110
80
62
58
62
70
80
89
97
102
106
109
112
113
114
115
115
114
114
114
114
114
115
116
116
116
116
116
117
117
117
118
118
119
119
119
119
119
119
120
120
120
120
120
121
121
122
122
123
124
124
124
124
124
125
125
126
127
128
128
129
129
130
131
132
133
134
134
135
136
137
139
141
142
144
145
146
148
150
151
152
153
154
155
156
157
158
159
160
161
161
162
162
162
161
160
159
158
156
153
150
147
144
142
139
136
133
130
128
126
123
121
119
117
115
114
113
112
111
110
110
109
109
109
108
108
109
108
108
108
108
108
108
108
109
109
108
109
109
109
109
109
109
109
109
110
110
109
110
110
110
110
111
111
111
111
110
111
112
112
111
112
112
112
112
112
112
112
113
113
113
114
114
114
114
114
114
114
114
114
113
114
114
114
114
114
114
114
114
113
113
113
114
114
114
114
114
114
114
115
115
115
116
116
117
117
118
118
118
120
120
121
123
125
126
127
127
127
127
126
125
124
123
122
121
120
118
118
117
116
115
114
113
113
112
112
112
112
112
113
113
113
113
113
113
113
113
113
113
114
113
114
113
113
112
110
108
106
105
108
113
122
138
160
186
211
234
244
244
240
217
177
132
93
68
55
54
59
69
78
87
94
98
102
105
108
111
113
114
114
115
115
115
115
116
116
116
116
117
117
117
117
118
118
118
118
119
119
120
120
120
120
121
121
121
121
122
122
122
122
123
124
124
125
125
126
126
126
127
128
128
129
130
131
132
132
133
134
134
135
137
138
139
140
142
143
144
146
147
149
150
152
153
154
155
156
157
158
160
160
161
161
161
161
161
161
161
159
157
155
153
150
148
144
141
138
135
132
129
127
124
122
120
118
116
114
113
112
111
110
110
109
109
109
109
108
108
108
107
107
107
107
107
108
108
109
109
109
109
109
109
109
109
109
109
110
110
110
111
110
111
111
112
111
111
111
112
112
112
112
112
112
113
113
113
113
113
113
113
113
114
114
114
113
113
114
113
114
114
114
114
114
114
114
114
114
114
115
115
115
115
115
115
115
115
115
115
115
115
116
116
117
117
117
117
118
118
119
120
121
122
123
124
125
126
127
128
128
129
129
128
127
126
126
124
123
122
121
120
120
119
117
116
114
113
113
113
113
113
113
114
113
114
114
114
114
114
114
115
115
115
114
114
114
114
114
113
111
109
109
110
115
124
138
159
184
209
232
245
244
243
228
193
147
106
76
60
56
61
69
79
88
95
101
105
108
111
113
114
115
115
115
115
114
115
115
116
116
117
117
117
117
117
118
118
118
118
118
119
119
119
120
120
120
121
121
121
121
121
122
122
123
124
124
125
125
126
126
127
127
128
129
129
130
131
132
132
133
134
135
136
137
138
139
141
142
144
145
146
148
149
151
152
154
155
156
157
158
159
160
161
162
162
162
162
162
162
161
161
159
158
156
153
150
147
143
140
137
134
130
128
125
123
120
119
117
115
114
113
112
111
111
111
110
109
109
109
109
109
109
108
109
109
109
109
110
110
110
110
110
110
110
110
110
110
111
111
111
111
112
112
112
112
113
113
113
113
113
113
113
113
114
114
114
115
115
115
116
116
115
115
116
116
116
116
116
115
115
116
116
116
116
116
116
116
117
117
116
116
116
116
117
116
116
117
117
117
117
117
116
117
117
117
117
117
117
116
117
117
117
117
117
118
118
118
117
117
117
117
117
117
118
118
118
118
118
118
119
119
119
119
119
119
119
119
119
119
119
119
119
119
119
119
119
119
119
119
119
119
120
120
120
120
120
120
120
120
120
120
120
120
120
120
120
120
120
120
120
120
121
122
122
122
123
123
123
124
124
125
126
127
127
128
129
130
131
133
134
134
133
132
131
129
128
128
127
126
126
125
124
123
122
122
121
120
119
119
119
119
118
119
119
119
119
119
120
120
120
120
120
119
119
119
119
119
118
117
115
114
115
119
127
140
160
185
211
235
245
245
245
243
219
177
132
95
72
64
66
73
83
93
101
107
111
114
116
118
119
119
119
118
118
118
118
118
118
118
119
119
119
120
120
120
120
120
120
121
120
121
121
121
121
122
122
123
123
124
124
124
124
124
124
125
125
125
126
127
127
128
128
128
129
130
130
131
132
133
134
135
136
137
138
139
140
142
143
144
145
147
148
149
151
153
153
155
156
157
158
160
160
161
161
162
162
163
163
163
163
162
162
160
158
155
153
150
147
144
140
137
134
131
128
125
123
121
118
117
115
114
112
111
110
110
109
109
109
108
108
108
108
108
107
107
108
108
108
108
108
108
108
108
109
109
109
109
109
109
110
110
110
110
110
111
111
111
111
112
111
111
112
112
112
112
112
112
113
113
112
113
113
113
113
113
112
113
113
113
113
113
113
113
113
113
114
113
113
113
113
113
114
114
114
113
114
113
113
113
113
113
113
113
113
114
114
114
114
114
114
114
114
114
114
114
114
115
114
114
114
114
114
114
114
114
114
114
115
115
114
114
115
115
115
115
115
115
115
116
115
116
115
115
115
115
116
116
115
115
115
115
116
115
115
116
116
116
116
116
116
116
116
116
117
117
116
117
117
116
116
116
116
116
117
117
117
117
117
117
117
117
117
117
117
117
117
117
118
118
118
118
118
118
118
118
118
118
119
118
118
118
119
119
118
119
119
119
118
119
119
119
119
119
119
119
119
119
120
121
122
122
122
123
123
124
124
124
125
126
126
128
129
130
132
133
133
132
130
129
127
127
126
126
125
124
124
123
122
121
120
119
119
119
118
118
118
118
118
118
118
118
118
118
118
118
118
118
118
118
118
117
116
114
112
112
115
122
133
152
176
203
228
245
245
245
244
229
191
146
106
79
66
64
70
79
89
98
104
109
113
115
117
118
118
117
117
117
117
117
117
118
118
117
118
118
118
118
119
119
119
120
120
121
121
121
121
121
121
121
122
122
122
122
123
123
123
124
124
124
126
126
126
126
127
128
128
129
129
130
131
132
132
133
135
136
137
137
139
140
140
142
143
144
146
147
149
150
152
153
154
155
156
158
158
159
160
161
162
163
163
164
164
164
164
163
162
160
158
156
153
150
147
143
140
136
133
130
127
124
122
120
118
117
115
113
112
111
110
110
110
110
109
109
109
109
108
108
109
109
108
108
108
108
108
109
108
108
108
108
108
109
109
109
109
109
110
110
110
110
111
111
111
111
111
112
112
112
112
112
112
112
112
113
112
112
113
113
113
113
113
113
113
113
113
113
113
113
113
114
114
114
114
114
114
114
114
114
114
114
114
114
114
114
114
115
114
114
114
114
114
114
114
114
114
114
114
115
115
115
115
115
115
115
115
115
115
115
115
115
115
115
116
116
115
115
116
116
116
116
116
116
116
116
117
117
117
117
117
117
117
117
117
117
117
117
117
117
117
117
117
117
117
117
117
117
117
117
118
118
118
118
118
118
118
118
118
118
118
118
118
118
118
118
118
118
118
119
119
119
119
119
119
119
119
118
119
119
119
119
118
118
119
119
119
120
119
119
119
119
119
119
119
119
119
119
119
120
120
120
120
120
120
120
120
120
120
120
120
120
120
120
120
120
120
120
120
120
120
120
120
120
120
120
120
120
121
121
121
121
121
121
121
121
122
122
123
123
123
123
124
124
125
126
126
127
127
128
129
131
133
134
133
133
131
130
128
128
127
127
126
126
125
124
123
122
121
120
119
119
118
118
118
118
119
119
119
119
119
119
118
118
119
119
119
119
119
118
117
115
113
112
114
118
127
141
163
189
215
238
245
245
245
241
214
171
128
94
73
65
67
74
83
92
100
105
109
112
114
116
116
116
116
116
116
116
116
117
116
117
117
117
117
118
118
118
118
118
119
119
119
119
119
119
120
120
120
120
120
121
121
121
121
122
122
123
124
124
124
124
125
125
126
126
127
128
129
129
129
130
130
131
132
133
135
136
137
138
139
140
142
143
144
146
148
149
150
152
153
154
156
157
158
158
159
160
160
161
162
162
162
162
161
160
158
157
154
152
149
146
143
139
136
133
130
127
124
122
119
117
115
114
113
112
110
109
109
108
107
107
106
106
106
106
106
106
106
106
107
106
107
107
106
106
107
107
107
107
107
107
108
108
108
108
108
108
108
108
109
109
109
109
110
110
110
110
110
110
111
111
111
111
111
111
111
111
111
112
112
112
112
112
112
112
112
112
112
112
112
112
112
112
113
113
113
113
113
113
113
113
114
114
113
113
113
113
113
113
113
113
114
114
113
113
114
114
114
114
114
114
114
114
115
115
114
114
114
114
114
114
114
114
115
114
114
114
114
114
114
114
115
115
115
115
115
116
116
116
116
116
116
116
116
116
116
116
116
116
116
116
117
117
116
116
116
116
116
117
117
117
117
118
117
117
117
117
117
117
117
117
118
118
118
118
118
118
117
117
118
118
118
118
118
118
118
118
118
118
119
119
119
118
119
119
119
118
119
119
118
118
119
119
119
119
119
119
119
120
120
120
121
121
122
122
123
124
124
125
126
126
127
129
130
132
132
132
131
130
129
128
127
127
126
125
124
123
122
121
120
119
118
118
117
118
118
118
118
118
118
118
118
118
118
118
119
119
119
119
119
118
118
116
114
112
112
113
119
129
146
169
196
223
244
245
245
244
235
201
156
113
83
67
62
67
76
85
93
99
104
108
112
114
116
117
118
118
118
118
118
118
118
118
119
119
119
120
120
120
121
121
121
122
122
122
122
123
122
123
123
123
123
124
124
124
124
125
125
126
126
127
127
128
128
128
128
129
129
130
131
132
133
133
134
135
136
137
138
139
140
141
142
144
145
147
148
150
152
153
155
156
157
158
159
160
161
162
163
164
164
165
166
166
166
166
165
163
162
160
158
155
152
150
146
143
140
136
133
130
127
124
122
120
118
117
115
114
113
113
112
111
111
110
110
110
110
109
109
110
110
110
110
110
109
109
109
110
110
110
110
110
110
110
110
110
110
110
110
110
111
111
111
111
112
112
112
112
112
112
112
113
113
113
113
114
114
113
114
114
114
114
114
114
114
114
115
115
115
115
114
114
115
115
114
114
114
115
115
115
115
115
115
115
115
115
115
115
115
115
116
115
115
115
115
116
116
116
116
117
116
116
116
115
116
116
116
117
117
117
117
117
116
116
116
117
117
117
117
117
117
118
118
118
117
117
117
117
118
118
118
118
118
118
118
118
118
118
118
118
119
119
119
119
119
119
119
119
119
119
120
119
119
119
119
119
119
119
119
120
120
120
120
120
120
120
120
120
120
120
120
120
120
120
120
120
120
120
121
121
121
121
121
121
121
121
121
121
121
121
121
120
121
121
120
120
121
120
120
121
121
121
121
122
122
122
122
122
122
122
122
121
122
122
122
122
122
122
121
122
122
122
122
122
122
122
122
122
122
123
123
123
124
124
125
125
125
126
127
127
128
129
129
130
131
132
132
132
132
131
130
129
128
127
126
126
125
125
124
124
124
123
123
122
121
121
121
121
120
121
121
121
121
121
121
121
121
121
121
121
121
119
117
115
114
115
119
128
141
162
187
213
238
245
245
245
243
220
180
134
97
74
65
66
74
83
93
101
107
111
114
116
118
118
118
118
117
117
117
117
118
118
118
119
119
119
119
119
120
120
120
121
121
121
121
121
122
122
122
122
123
123
123
124
124
124
124
124
124
125
125
125
126
126
126
127
128
129
129
130
130
131
132
132
133
134
135
136
138
139
140
141
142
144
145
146
148
150
151
153
154
156
157
159
160
161
162
162
163
164
165
165
166
166
166
165
164
162
160
158
156
153
150
146
143
139
136
132
129
126
123
120
118
117
115
113
112
111
110
110
109
109
108
108
108
108
107
107
108
108
107
107
107
107
107
107
108
108
108
108
108
108
109
109
109
109
109
110
110
110
110
109
110
110
110
111
111
111
111
111
112
112
112
112
112
112
112
112
112
112
112
112
112
112
112
112
112
113
113
113
113
113
113
113
113
113
113
114
114
114
113
113
113
113
113
113
113
113
113
114
113
113
114
114
113
114
114
114
114
114
114
114
114
114
114
114
114
114
114
114
114
114
114
114
115
115
115
115
115
115
115
115
115
115
115
115
115
115
114
115
115
115
116
115
116
116
116
116
116
116
116
117
117
116
116
116
116
116
117
117
117
117
117
117
116
116
116
116
116
117
116
116
116
116
116
117
117
117
118
118
118
118
118
118
118
118
118
118
118
118
118
118
118
118
118
118
119
119
119
119
119
119
119
119
119
119
119
119
119
119
119
119
119
119
120
119
120
120
120
120
120
120
120
120
119
120
120
120
120
120
120
120
120
120
120
120
120
120
120
120
121
121
121
121
121
121
121
121
121
121
121
122
122
122
122
122
122
122
122
122
122
122
122
123
123
124
124
124
125
125
125
126
126
127
128
129
130
132
133
133
133
133
131
130
129
128
128
127
126
126
125
125
124
124
123
122
121
121
121
121
121
121
121
121
121
121
121
121
121
121
121
121
121
121
120
118
116
114
115
119
128
141
162
188
215
239
245
245
245
243
221
180
135
99
76
66
67
75
84
94
102
107
112
115
117
118
119
119
119
119
119
119
119
119
119
119
119
119
119
119
119
119
120
120
120
120
121
121
121
121
121
122
122
122
123
123
123
123
124
124
124
125
125
126
126
127
127
128
128
129
129
130
131
131
132
133
134
135
135
136
137
138
139
140
141
142
144
146
147
149
150
152
154
155
157
158
159
161
162
163
164
164
165
166
166
167
167
167
167
166
165
163
160
158
155
152
148
144
141
138
135
131
128
125
122
120
117
116
114
113
112
111
110
109
108
108
107
107
107
107
106
106
107
107
107
107
107
107
108
108
108
108
107
107
108
108
109
108
108
108
108
109
109
109
109
109
110
110
110
110
111
111
111
112
112
112
112
112
112
112
112
112
112
112
113
113
113
113
113
113
113
113
113
113
113
113
113
114
114
114
114
114
114
114
114
114
114
114
114
114
114
115
115
114
114
114
114
114
114
114
114
114
115
115
115
115
116
116
116
116
116
115
115
115
115
115
115
115
115
116
116
116
115
116
116
116
116
117
117
117
116
117
117
117
117
117
117
118
118
118
118
118
118
118
118
118
118
118
118
118
118
118
118
118
118
118
118
118
118
118
118
118
119
119
118
119
119
119
118
119
119
119
119
119
119
119
119
118
118
119
119
119
119
119
119
119
119
119
119
119
119
119
118
119
119
118
118
119
119
118
119
119
119
119
119
119
119
119
119
119
119
119
119
119
119
119
119
119
119
119
120
120
119
119
119
119
120
120
121
121
121
122
122
123
123
124
124
125
125
127
128
129
130
131
131
130
129
128
127
126
126
125
125
124
124
123
122
122
122
120
119
119
118
118
119
118
119
119
119
119
119
119
119
119
119
119
119
119
118
116
114
112
113
116
123
136
155
180
207
232
245
245
245
244
223
183
138
99
75
64
64
70
80
90
98
104
109
112
115
117
117
117
117
117
117
117
117
118
118
118
118
118
118
119
119
119
119
120
120
120
120
121
121
121
121
121
121
121
122
122
122
123
123
123
124
124
124
125
125
125
126
126
127
128
128
128
129
130
130
131
132
133
134
135
136
137
138
139
140
142
143
145
146
148
150
152
153
155
156
158
159
161
161
163
164
164
165
167
167
167
168
168
167
166
165
163
161
158
155
152
149
146
142
138
135
132
129
126
123
120
118
116
114
113
112
111
110
109
108
108
107
107
107
107
106
106
106
106
106
106
106
106
106
107
107
106
106
106
107
107
107
107
107
107
108
108
108
109
108
109
109
109
109
109
110
110
110
110
111
111
111
111
111
111
111
111
112
112
112
112
112
112
112
112
112
112
112
112
112
112
112
112
112
113
113
113
113
112
113
113
113
113
113
114
114
114
113
114
113
113
113
114
114
113
113
113
113
113
113
113
113
113
113
114
114
114
114
114
114
114
114
114
114
114
114
115
114
114
115
115
115
115
115
115
115
116
116
115
116
116
115
115
115
116
116
116
115
115
116
116
116
116
116
116
116
116
116
116
115
116
116
116
116
117
117
117
117
117
117
117
117
117
117
117
117
117
117
117
117
117
117
117
117
117
118
118
118
118
118
118
118
118
118
118
118
119
119
119
119
119
119
119
119
120
120
121
121
122
122
123
124
125
125
126
127
128
128
128
127
127
126
125
124
123
122
122
121
121
121
121
120
119
119
118
118
118
117
118
118
118
119
120
120
120
119
119
119
119
119
118
117
115
113
112
113
117
124
138
159
185
212
236
245
245
244
241
216
172
127
91
70
61
62
69
79
89
97
103
108
111
114
116
117
118
118
118
118
118
119
119
119
120
120
120
120
121
121
121
121
121
121
122
122
122
123
123
123
123
124
124
124
124
124
125
125
125
125
126
126
126
127
127
128
128
129
130
130
131
132
132
133
134
134
135
136
137
138
138
140
141
142
144
146
148
149
150
152
153
154
156
157
158
160
161
162
164
164
165
166
166
167
167
167
166
166
165
163
162
160
157
154
151
147
144
141
138
134
131
128
125
123
121
119
116
115
113
112
111
110
110
110
109
108
109
108
108
108
108
108
108
109
108
108
108
108
108
108
108
108
109
109
109
109
109
109
109
109
110
110
110
110
111
111
110
110
110
111
111
111
111
111
111
112
112
112
112
112
112
112
112
113
113
113
113
113
114
114
113
113
114
114
114
114
114
114
114
114
114
114
114
114
114
114
114
114
114
114
114
114
115
115
114
114
114
115
115
115
115
115
115
115
115
116
116
116
116
115
116
116
115
115
116
115
116
117
118
118
119
118
120
120
120
121
122
122
123
123
125
126
128
129
129
129
128
127
127
126
126
125
123
122
121
121
120
118
117
116
116
115
115
115
115
115
116
116
116
116
116
116
116
115
116
116
116
116
116
116
115
114
112
110
109
109
112
119
131
150
174
199
224
243
245
244
239
214
172
127
90
67
57
57
63
72
81
90
97
102
105
109
112
114
115
115
116
116
116
116
116
116
116
117
117
117
118
118
118
118
119
119
119
119
119
120
120
120
121
121
121
121
121
122
122
123
123
123
124
125
126
126
126
127
127
128
129
130
130
130
131
131
132
133
134
135
136
137
138
139
140
142
143
145
146
148
150
152
153
155
157
158
159
161
161
162
163
164
165
165
166
166
166
165
165
164
163
161
158
155
152
149
146
142
139
136
132
129
126
124
122
119
117
116
114
113
112
111
110
109
108
108
108
108
108
108
108
108
108
108
108
108
108
108
108
108
108
108
109
108
109
109
109
108
108
108
109
109
109
110
110
110
110
110
110
110
111
111
111
111
111
112
112
112
112
112
112
113
113
113
113
113
113
113
113
113
113
113
113
113
113
113
114
113
113
113
113
114
114
114
114
114
114
114
114
114
114
114
114
114
114
114
115
115
115
115
115
115
115
115
115
115
115
115
115
115
116
116
116
116
117
116
116
116
117
117
118
118
119
120
120
121
122
122
123
123
124
125
127
128
129
129
128
128
127
126
125
124
123
123
122
121
120
119
118
117
117
116
115
115
115
115
115
115
115
115
115
115
114
114
115
115
115
115
115
115
115
115
114
112
110
109
110
113
120
131
148
171
198
223
243
245
245
243
221
182
135
96
71
59
58
65
74
83
92
98
103
107
110
112
113
114
115
115
115
115
115
116
116
116
116
116
117
117
117
117
118
118
118
119
119
119
120
120
120
120
121
121
121
121
122
122
122
123
123
124
125
125
125
126
126
127
127
128
128
129
129
130
131
132
132
133
135
136
137
138
139
140
142
143
144
146
147
149
150
152
154
156
157
159
160
161
162
163
164
165
165
165
165
165
165
165
164
162
161
159
156
153
149
146
142
139
136
133
130
127
124
121
119
117
116
114
113
111
110
110
109
108
109
109
108
108
108
108
108
108
108
108
108
108
108
108
108
109
108
109
109
109
109
109
110
109
110
110
110
110
110
111
110
111
111
111
112
112
112
112
112
112
112
112
113
113
113
113
113
113
113
113
113
113
114
114
114
113
113
113
113
113
113
114
114
114
114
114
115
115
115
114
115
115
115
115
115
115
115
115
115
115
115
114
115
115
115
115
114
114
114
114
114
114
114
114
115
114
114
115
115
115
115
116
116
116
116
116
116
116
116
116
116
116
116
116
116
116
116
117
117
117
117
117
117
117
117
117
117
117
117
117
117
117
117
117
118
117
118
118
118
118
118
118
118
118
118
118
118
118
118
118
118
118
118
118
118
118
118
118
119
119
119
119
119
119
119
119
119
119
119
119
119
119
119
120
119
119
119
120
120
120
120
120
120
120
120
121
121
122
122
123
123
124
124
125
125
126
127
127
128
129
131
132
133
133
133
132
130
129
128
127
127
126
126
125
124
123
122
122
121
120
119
119
119
119
119
119
119
119
119
119
119
119
119
119
119
120
120
120
119
118
116
114
114
115
120
129
144
164
190
216
240
245
245
245
242
215
172
127
92
72
65
67
74
84
93
101
106
110
114
116
117
118
118
118
117
117
117
117
118
118
118
118
119
119
119
119
120
120
120
120
121
121
121
121
122
122
122
122
122
123
123
123
124
124
124
124
124
125
125
126
126
127
128
128
129
129
130
131
131
132
133
134
134
135
136
137
138
140
141
142
143
144
146
148
150
151
153
154
156
157
158
159
161
162
162
163
164
165
166
167
167
167
166
166
165
164
162
159
156
153
150
147
143
140
136
133
130
127
124
122
120
117
116
115
114
113
112
111
110
110
109
109
109
109
109
109
109
109
109
109
109
109
109
109
109
109
109
109
109
110
110
110
111
110
111
111
111
111
111
111
111
111
112
112
112
111
112
113
113
113
113
113
114
114
114
113
114
114
114
114
114
114
114
115
115
115
115
114
115
114
114
114
114
114
115
115
115
115
115
115
115
115
115
115
115
115
115
115
116
116
116
115
116
115
115
115
115
115
116
116
116
116
116
116
116
116
116
116
116
116
116
116
116
116
116
116
116
116
116
116
117
116
116
116
116
117
117
117
117
117
117
117
117
117
117
117
117
117
117
117
117
117
117
117
117
117
117
118
118
118
118
118
118
118
117
118
117
117
118
118
118
118
118
118
118
118
118
118
119
119
119
119
120
120
119
119
120
120
120
120
120
120
120
120
120
119
120
120
120
120
120
120
120
120
120
120
120
120
121
121
121
121
120
120
121
121
122
122
123
123
123
124
124
125
125
126
127
127
128
129
130
132
134
134
134
133
131
130
129
128
127
127
126
126
125
125
124
123
122
122
121
120
120
120
119
120
120
120
119
119
119
120
120
120
120
120
120
120
119
118
116
114
113
114
119
127
141
161
187
214
238
245
245
245
243
221
181
135
98
75
65
66
73
83
92
99
105
109
112
115
116
117
117
118
117
117
117
117
117
118
118
119
119
119
119
119
120
120
120
121
121
121
121
122
122
122
122
122
123
123
123
124
124
124
125
125
125
125
126
126
127
127
128
128
129
130
130
131
132
133
133
134
136
136
137
138
139
140
141
142
144
145
146
148
149
151
153
155
156
157
159
160
161
162
163
164
165
166
166
167
167
168
167
167
166
165
163
161
158
155
151
148
145
141
138
134
131
128
125
122
120
118
116
114
113
112
111
110
110
110
110
109
109
109
108
108
108
108
108
108
108
108
108
108
108
108
109
109
109
109
109
109
109
109
109
109
109
109
109
110
110
110
110
111
111
111
112
112
111
111
112
112
112
112
112
113
112
113
113
113
113
113
113
113
113
114
113
113
114
114
114
114
114
113
114
114
114
114
114
114
114
114
114
114
114
114
114
114
114
114
114
114
115
115
115
115
114
114
114
114
114
115
114
114
114
115
115
115
114
115
115
115
115
115
115
115
115
115
115
115
115
115
115
115
115
115
116
115
115
116
116
116
116
116
116
116
116
116
116
116
116
116
116
116
116
116
117
117
117
117
117
117
117
117
117
117
118
118
118
117
118
118
118
118
118
118
118
118
118
117
118
118
118
118
118
118
118
118
118
118
118
118
118
118
118
118
118
118
119
119
119
119
119
119
119
119
119
119
120
121
121
122
122
123
123
123
124
124
125
125
126
127
128
129
130
130
130
130
129
128
127
126
125
124
124
123
123
122
122
121
121
120
119
118
118
118
118
118
118
118
119
118
119
119
119
119
118
119
119
119
118
116
114
112
112
114
120
131
148
171
198
224
244
245
245
244
236
203
158
115
85
68
64
68
76
86
95
102
106
110
113
115
117
117
117
117
116
116
116
117
117
117
117
117
118
118
118
119
119
119
119
119
119
119
120
120
120
120
121
121
121
121
122
122
122
123
123
123
124
124
124
125
126
127
127
128
128
128
129
130
130
131
132
132
133
133
135
136
137
138
140
141
143
144
145
147
148
150
152
153
155
156
157
159
160
162
162
163
164
165
165
166
166
166
166
165
164
162
160
158
155
152
149
145
141
138
134
131
128
125
122
120
118
116
114
112
111
110
109
108
108
107
107
107
107
107
107
107
107
107
107
107
107
107
106
107
107
107
107
107
107
107
107
106
107
108
108
108
109
109
109
109
108
108
108
109
109
109
110
110
110
110
110
110
110
110
111
111
112
112
112
112
112
112
112
112
112
112
113
112
112
112
113
113
113
113
113
113
113
113
113
113
113
113
113
112
112
112
112
112
113
113
113
112
112
112
112
112
112
112
113
113
113
114
114
114
114
114
114
114
115
115
115
115
116
116
116
116
116
116
116
116
116
116
115
115
114
114
114
115
114
114
114
114
114
114
114
114
114
114
115
115
115
115
115
116
116
116
116
116
117
117
117
116
116
116
116
116
117
117
118
117
117
117
117
117
117
118
118
119
120
120
121
121
122
122
122
123
124
125
126
128
129
130
130
129
128
126
125
124
123
123
122
121
121
120
120
120
120
119
118
117
116
116
116
116
116
116
116
116
117
117
117
117
116
116
116
116
116
116
115
113
112
111
113
117
126
141
162
189
215
238
245
245
245
238
208
164
120
87
67
61
64
72
82
92
99
105
109
112
114
116
116
116
115
114
114
114
114
115
115
116
116
116
117
117
117
118
117
117
118
118
118
118
119
119
120
120
120
121
121
121
121
121
121
122
123
125
126
126
126
125
125
125
125
125
126
126
127
128
129
130
131
132
133
134
135
136
137
139
140
141
143
144
146
148
151
152
154
156
157
158
160
161
162
164
165
166
166
167
167
167
166
165
164
163
162
159
156
153
150
147
144
140
137
134
130
128
125
122
120
118
116
114
113
111
110
109
109
109
108
108
107
106
106
106
107
107
107
107
107
106
106
105
105
105
106
106
106
107
107
107
108
108
108
108
108
108
108
108
108
108
108
108
108
108
108
109
109
109
110
110
111
112
112
113
112
111
111
110
110
111
111
111
110
111
111
111
112
112
112
112
111
109
109
108
108
109
110
110
111
112
113
113
113
113
113
113
113
113
113
113
112
112
112
111
111
111
111
112
112
113
114
115
117
118
119
120
120
118
117
116
116
118
119
121
123
124
126
128
129
128
127
124
121
118
116
116
117
117
118
117
117
116
115
114
113
113
112
112
111
112
112
112
111
111
111
111
112
112
113
113
113
113
114
114
114
114
113
112
112
110
108
106
106
108
115
129
150
176
203
227
243
244
242
224
188
143
101
71
55
51
56
65
76
85
92
97
101
103
106
108
110
110
110
110
109
110
111
112
113
114
114
114
115
115
116
116
117
117
118
119
120
120
121
121
120
120
120
120
119
119
120
121
123
125
126
128
129
129
128
127
126
125
125
125
126
127
128
128
129
130
130
131
132
133
134
136
137
139
141
143
144
145
147
148
150
152
154
155
156
158
159
160
161
162
163
163
164
164
164
164
164
164
163
162
161
159
157
154
150
146
143
140
137
134
132
129
126
122
119
116
113
111
109
107
106
106
106
106
106
105
104
103
103
103
103
103
103
104
104
105
105
105
105
104
104
105
105
106
107
107
108
107
108
109
110
111
112
112
110
109
109
108
108
108
108
109
110
111
111
112
112
112
112
112
112
112
111
111
111
112
113
115
117
118
118
117
115
113
110
107
105
104
104
104
105
106
107
108
108
108
108
108
108
109
110
110
111
112
113
114
114
114
115
116
118
119
120
121
122
123
124
126
129
130
132
132
132
132
131
131
130
129
127
126
124
122
120
118
117
115
114
112
112
112
111
112
112
112
112
112
112
112
113
113
113
114
114
114
115
115
114
114
113
111
109
108
108
110
117
129
147
171
197
222
242
245
245
239
213
172
128
91
69
60
61
69
78
87
95
101
106
110
112
114
115
115
115
114
114
114
114
114
115
116
116
117
118
118
118
118
117
117
116
116
116
116
117
117
117
118
118
119
120
120
120
121
122
124
126
129
130
130
130
129
129
128
128
128
127
126
125
125
125
126
128
129
131
132
134
136
137
139
140
142
143
145
146
148
150
151
154
156
158
160
161
162
163
165
165
165
164
164
164
163
162
162
161
159
156
153
151
149
146
143
140
137
134
131
128
125
124
122
120
118
116
115
114
113
112
111
110
110
110
109
109
109
109
109
109
109
109
110
110
110
110
109
109
110
110
110
110
109
108
108
108
108
109
109
111
112
113
114
115
115
114
114
114
113
113
113
114
115
115
114
114
113
112
111
111
111
110
112
112
113
114
114
115
114
115
115
115
115
115
115
116
116
117
117
117
118
119
119
119
118
116
115
114
115
115
116
117
118
118
118
118
119
119
121
122
125
127
128
129
130
129
128
127
126
125
124
122
121
120
119
118
117
116
113
112
110
110
111
111
112
112
113
113
113
112
113
113
113
113
114
114
114
113
113
113
113
112
111
110
109
110
112
117
127
144
167
194
220
242
245
245
243
221
180
134
94
68
56
56
63
73
84
92
99
104
107
109
110
111
111
111
112
113
113
114
115
115
116
117
117
118
118
118
117
116
114
113
112
112
113
114
114
114
115
115
116
116
117
117
118
119
119
119
120
120
121
121
122
122
123
124
124
125
125
126
126
127
128
129
130
131
132
133
134
136
137
138
140
142
144
146
148
150
151
153
154
156
157
159
160
161
162
163
163
164
164
164
165
164
164
163
161
160
158
155
152
149
146
142
139
136
133
130
127
124
122
120
118
117
116
115
114
113
112
111
110
109
110
110
110
110
110
109
109
109
109
108
109
109
109
109
109
108
108
108
109
109
109
110
110
110
111
111
111
111
111
111
111
111
110
110
110
110
110
111
111
111
110
110
111
111
110
111
112
114
115
117
116
116
115
114
113
113
114
114
114
115
117
118
119
120
121
122
123
124
125
126
127
128
129
130
130
129
129
128
127
127
126
125
123
121
120
119
118
117
116
115
115
114
114
114
114
114
114
115
114
114
114
114
115
115
115
115
114
114
114
113
113
113
113
112
109
108
109
112
120
133
153
179
206
232
245
245
245
242
216
172
125
88
64
55
57
64
75
85
94
100
105
109
112
114
115
116
115
114
113
112
112
112
112
112
113
114
114
115
115
116
116
116
117
117
117
117
118
118
119
119
119
120
120
120
120
121
121
121
122
123
124
125
125
126
126
126
127
128
129
129
130
131
132
132
133
134
135
136
136
138
140
141
143
144
146
147
148
150
152
153
154
155
156
157
158
159
160
161
162
162
162
163
162
162
161
160
159
157
155
152
149
146
143
140
137
134
131
130
128
125
122
120
118
116
116
116
116
117
118
117
117
116
114
113
111
109
107
104
103
103
103
104
104
105
106
106
106
107
108
108
108
109
109
110
110
111
111
112
113
113
113
113
113
113
114
114
114
114
114
114
115
115
115
114
114
115
116
116
116
115
115
114
115
115
114
115
115
115
114
115
115
115
114
115
115
115
116
116
117
118
118
119
119
120
120
121
123
124
125
127
128
128
129
129
128
127
126
125
124
123
123
122
121
119
118
118
117
116
115
114
114
114
115
117
121
125
129
129
126
120
112
106
103
102
103
104
106
108
109
109
110
109
108
106
105
105
107
113
123
139
163
189
215
237
245
245
244
229
195
153
114
83
64
56
56
63
73
83
93
101
106
108
110
110
110
110
110
110
111
112
112
113
113
113
113
114
114
114
114
115
116
116
116
117
117
117
117
117
117
117
118
119
120
120
120
120
121
121
122
122
123
123
123
123
124
124
125
126
128
129
129
129
128
128
129
130
132
134
136
138
139
140
141
142
143
144
146
148
150
152
153
154
156
157
159
160
161
162
162
163
163
164
164
163
162
161
159
156
153
151
148
144
141
138
135
132
129
126
123
120
118
117
115
114
113
112
111
111
111
112
111
110
109
108
108
108
108
109
111
114
116
117
117
115
111
107
105
106
108
109
108
106
104
102
101
101
102
104
106
107
109
110
111
111
112
112
113
113
113
114
114
114
114
114
114
113
113
113
113
113
113
113
113
114
115
115
115
116
116
117
118
119
120
120
121
122
123
125
126
127
128
128
128
126
125
124
124
124
124
124
124
123
122
121
118
117
115
113
112
111
108
107
107
107
107
108
109
110
110
111
112
113
113
113
113
113
114
113
112
110
109
107
106
108
112
121
136
157
184
210
234
245
245
244
237
205
159
115
81
60
53
56
65
76
86
94
98
100
102
103
104
105
107
108
109
110
111
111
111
112
112
113
114
114
114
114
115
115
115
116
116
117
117
117
118
118
119
119
119
120
120
120
120
121
121
122
122
122
123
123
123
124
124
125
126
128
129
131
132
133
134
136
136
136
136
136
136
137
139
140
141
142
143
143
143
144
145
147
149
151
153
155
156
158
159
161
162
163
164
164
165
164
163
162
161
159
156
152
148
145
143
140
137
132
126
120
115
111
109
108
108
108
108
108
109
109
109
109
109
109
109
109
108
109
109
110
110
110
111
111
111
110
111
111
111
112
112
112
111
110
109
110
112
116
119
121
121
118
115
111
109
108
108
109
110
111
112
113
114
115
115
116
116
116
116
116
117
117
117
118
119
119
119
119
119
120
121
121
122
123
124
124
125
126
128
129
129
129
128
127
126
125
123
122
121
120
120
120
119
118
117
116
114
114
113
112
112
112
112
112
112
112
112
111
110
109
109
109
108
108
108
108
108
107
106
106
104
103
102
105
111
122
139
163
191
218
242
245
245
245
233
194
143
95
63
46
44
52
64
77
87
96
102
106
109
110
110
110
109
109
108
109
109
109
109
110
110
110
110
110
110
110
111
112
113
114
115
116
116
117
118
119
120
120
121
121
121
122
122
122
123
123
124
125
126
126
126
127
128
129
130
130
129
128
128
128
129
130
132
134
135
137
138
139
141
142
143
145
146
148
150
153
157
162
165
168
168
166
163
160
159
158
158
157
156
155
153
152
151
149
147
145
142
139
137
134
131
129
126
123
121
118
116
115
114
113
112
112
112
111
111
111
111
112
113
113
112
111
110
108
107
106
106
107
108
108
108
109
110
110
111
111
111
112
112
113
113
113
113
113
113
113
114
114
114
114
116
116
117
118
118
118
119
119
119
119
119
119
119
119
119
119
119
118
119
118
118
118
118
118
119
119
120
121
122
123
126
128
129
130
129
126
125
125
126
127
127
127
127
127
126
126
125
124
123
122
120
119
117
116
115
114
113
113
112
112
112
112
112
112
112
112
112
113
114
116
117
119
119
119
117
115
113
111
110
109
108
107
106
108
111
118
130
147
170
196
220
240
245
244
238
209
166
121
86
64
56
59
68
78
89
98
105
110
113
114
114
113
111
110
108
108
107
108
108
109
111
111
111
112
112
112
112
112
113
113
114
114
114
114
114
114
114
114
114
115
115
115
115
115
115
116
116
116
118
118
119
120
120
121
121
122
123
125
125
126
127
127
128
128
130
131
133
134
134
135
136
137
138
140
142
144
146
148
149
151
153
153
154
155
156
156
157
157
157
157
156
155
153
151
149
147
144
142
139
137
134
131
128
126
124
121
119
118
118
117
116
114
113
111
110
109
107
107
107
108
109
110
111
110
108
108
107
107
105
105
104
104
105
105
106
107
109
109
110
110
111
111
111
111
112
112
112
113
113
114
115
115
114
113
113
113
112
112
112
112
111
111
111
110
110
110
110
110
111
111
112
113
113
113
114
114
113
113
113
113
115
116
118
120
123
125
127
128
128
129
128
127
126
124
123
121
119
118
116
114
114
113
112
111
110
111
110
111
111
111
111
111
111
112
112
112
112
112
112
112
112
112
111
111
111
110
109
108
106
104
105
107
114
127
146
171
198
223
244
245
244
238
210
166
119
83
61
52
53
61
71
81
90
97
102
105
108
111
113
115
117
117
116
115
114
114
112
112
111
111
111
111
111
112
113
113
113
113
114
114
114
113
113
113
114
115
116
118
119
119
119
119
119
119
119
120
120
121
122
123
124
124
125
126
126
127
128
130
132
136
140
143
145
145
143
140
139
138
137
138
139
141
143
145
146
148
150
151
152
153
153
153
153
153
153
152
150
149
148
146
145
142
140
139
137
135
133
132
130
128
125
123
121
120
118
116
116
115
115
114
113
113
113
112
112
112
112
112
112
112
113
113
112
112
112
113
113
113
113
114
114
114
114
114
113
114
114
115
115
115
115
116
116
118
120
121
122
121
119
116
114
112
111
111
113
113
114
115
115
116
116
116
116
117
117
117
117
118
118
119
120
121
121
122
121
122
122
122
123
124
124
125
126
126
128
129
130
130
131
131
131
130
129
128
127
126
125
123
122
120
120
119
117
116
116
116
115
115
115
115
115
116
116
116
116
116
117
117
117
117
117
117
117
117
117
119
120
119
118
116
114
115
120
131
148
172
199
224
243
245
243
229
194
148
105
74
58
54
59
68
79
88
94
100
104
108
111
114
114
115
116
116
117
118
118
119
119
118
117
116
114
113
112
112
112
113
114
115
116
117
118
118
119
119
120
121
121
122
123
123
123
123
124
124
124
125
125
125
125
126
126
128
129
130
131
131
131
132
133
135
137
139
139
138
138
137
137
138
139
140
142
144
146
148
150
151
152
153
154
156
157
158
159
160
160
160
160
159
158
157
155
153
151
148
145
142
139
136
134
132
130
128
126
123
121
118
116
114
113
112
111
111
111
111
111
111
110
110
110
109
109
109
109
109
109
110
110
111
111
111
112
112
112
112
112
112
113
113
113
113
114
114
115
115
116
116
116
116
116
116
116
116
116
115
116
116
117
119
120
121
120
119
117
116
114
113
114
114
114
114
114
115
116
118
119
122
123
123
122
121
119
118
119
120
121
122
124
126
127
128
128
128
127
126
126
125
124
124
123
122
122
120
119
118
117
116
115
114
114
114
114
114
114
114
114
114
114
114
114
114
114
114
114
114
114
114
114
114
114
114
113
111
109
108
108
112
120
134
154
178
204
227
244
245
243
229
194
150
108
78
62
60
65
76
88
101
110
116
117
117
114
111
108
108
109
111
113
113
112
110
108
108
108
109
110
111
111
112
113
114
115
116
116
117
118
119
119
120
120
121
121
121
121
121
121
121
122
123
123
124
124
125
125
125
125
125
126
127
128
129
131
132
134
136
138
141
142
144
143
142
140
138
137
136
138
140
143
145
147
149
151
152
153
153
153
154
154
155
155
155
154
154
153
152
150
148
146
144
141
139
136
134
132
130
128
126
125
123
122
120
119
118
116
115
114
113
113
113
113
112
112
112
112
111
112
111
111
111
111
111
112
113
113
113
113
113
113
113
113
112
112
111
112
114
118
122
124
124
119
113
107
103
102
102
104
105
106
107
108
109
109
109
109
110
111
111
112
113
113
113
113
113
114
114
115
115
116
116
116
116
116
116
116
116
117
117
117
117
117
119
121
122
121
119
116
112
110
109
109
109
111
113
114
115
116
117
117
119
120
122
124
124
125
125
124
123
122
121
121
120
119
117
117
116
115
115
114
113
113
113
113
113
113
113
113
113
113
113
113
113
112
112
113
113
113
113
113
113
112
112
111
109
107
106
108
113
122
137
159
184
210
233
244
244
243
226
189
143
103
76
62
61
67
75
82
88
91
94
97
100
103
106
108
109
110
110
110
110
110
111
111
111
112
112
112
113
113
114
115
116
116
116
117
118
118
118
119
119
119
120
121
121
121
121
120
120
120
120
120
120
121
121
122
122
122
123
123
124
125
126
128
130
132
135
138
141
143
145
147
149
149
149
149
149
148
147
147
147
148
148
149
151
152
153
155
156
157
158
159
159
159
158
157
155
153
151
149
147
144
141
138
135
133
131
129
126
124
122
120
118
117
116
114
113
113
112
111
111
110
110
110
110
110
110
111
111
111
111
111
112
111
111
111
111
111
112
112
112
112
112
112
112
113
113
113
114
115
115
115
115
115
114
114
114
113
112
112
112
112
113
113
114
114
115
115
115
114
113
112
112
112
112
113
113
115
116
116
116
116
115
115
115
116
116
117
116
116
115
114
113
113
113
114
114
113
113
113
113
114
114
114
114
115
116
116
116
116
116
116
116
117
116
116
117
117
118
119
119
119
120
121
121
121
122
122
123
124
126
128
129
129
129
128
127
126
126
125
125
124
124
123
122
121
120
119
118
117
116
115
115
116
116
117
117
117
117
117
118
117
116
115
115
116
116
117
118
118
118
116
114
112
112
114
119
129
144
167
193
218
240
245
245
243
224
185
138
97
69
56
55
62
72
83
93
100
105
109
112
114
115
115
115
115
115
116
116
116
117
117
118
118
119
119
120
120
121
122
123
124
124
123
121
119
117
116
116
117
118
119
120
120
120
120
121
122
123
124
124
124
125
125
126
126
127
128
129
130
132
133
134
135
136
137
138
139
140
141
143
144
145
146
148
149
149
150
151
151
152
152
153
154
156
157
158
160
161
161
161
160
158
155
153
152
150
148
147
145
143
140
138
136
134
131
127
123
120
117
115
114
114
114
114
114
113
113
112
112
112
112
111
111
111
111
110
110
110
111
110
110
111
111
111
111
111
112
112
111
111
112
111
112
112
112
113
113
113
113
113
113
113
113
114
115
115
116
116
117
118
120
122
123
123
122
120
118
116
114
113
112
112
111
111
110
110
110
110
112
113
114
114
113
113
114
115
117
118
119
119
119
119
119
118
118
118
119
119
120
120
121
122
122
123
123
123
124
124
126
128
130
131
132
133
133
132
130
127
125
122
120
118
115
113
109
106
103
102
101
102
102
102
103
104
105
106
107
108
109
110
110
111
111
111
110
110
110
110
111
111
110
109
107
107
108
113
122
136
156
182
207
229
244
245
243
225
189
145
104
76
63
61
67
76
87
96
103
109
112
114
116
116
116
116
116
116
116
116
117
117
117
118
118
118
118
118
118
119
119
119
119
120
120
120
120
120
120
121
121
121
122
122
122
122
122
123
124
125
128
131
134
135
135
133
129
126
123
122
122
122
123
124
125
127
129
131
133
134
136
138
139
141
142
144
145
146
147
148
150
151
153
154
155
156
157
158
159
160
161
161
161
160
159
158
157
155
154
152
149
146
142
138
134
130
127
124
123
121
119
118
117
116
115
114
114
113
112
112
111
111
112
111
112
112
113
114
115
116
117
118
119
118
116
114
111
109
107
106
106
107
108
108
109
109
109
110
111
112
113
113
112
111
110
110
112
113
113
113
113
113
112
111
110
109
109
110
112
113
114
115
116
116
117
117
117
117
117
117
116
117
117
118
118
119
119
120
121
121
122
123
125
126
127
126
123
120
117
116
117
119
122
124
124
122
119
116
112
112
111
112
113
115
116
117
118
118
118
118
117
118
118
119
119
119
119
120
120
120
122
123
123
122
122
121
121
122
124
126
127
126
125
123
121
120
120
120
120
121
121
123
125
127
129
130
130
130
129
127
126
125
124
123
123
122
121
121
120
119
119
118
117
117
117
117
117
117
118
119
121
122
122
121
119
116
114
113
113
114
114
114
113
111
109
107
107
109
115
125
143
166
192
217
238
245
245
241
219
180
135
97
73
62
62
69
79
89
98
104
109
112
114
116
116
116
116
115
115
116
116
116
116
117
118
118
118
118
118
118
118
119
119
120
121
122
122
122
121
120
121
121
122
122
123
123
123
124
124
125
127
129
130
132
131
128
125
121
118
116
114
114
115
116
117
119
122
124
126
129
131
134
136
138
140
143
144
145
146
147
149
150
152
155
157
159
161
162
164
165
166
166
166
166
166
165
164
162
160
158
155
152
149
146
143
141
138
136
133
130
128
126
123
122
120
118
117
116
114
113
112
111
111
110
111
111
111
111
112
111
111
111
111
111
112
113
114
115
115
115
115
115
116
116
115
113
112
110
109
108
108
107
106
107
107
107
107
106
106
106
105
105
105
105
105
104
104
104
105
106
106
107
106
106
107
107
107
107
107
107
108
109
109
110
110
112
114
116
117
118
118
117
116
116
115
116
116
116
117
117
117
117
116
114
113
110
110
110
110
111
112
113
114
115
116
116
116
117
116
117
116
116
115
116
115
115
115
116
116
116
116
116
117
117
117
117
118
118
118
118
119
120
121
122
124
124
124
123
122
120
119
119
119
120
122
123
124
125
125
127
129
131
131
132
131
129
128
126
126
125
125
124
123
122
121
120
118
117
116
115
115
114
115
115
115
115
116
116
116
116
116
116
117
116
116
116
116
116
116
115
113
112
110
109
111
115
124
141
163
189
216
238
245
245
243
228
191
145
104
77
63
60
65
73
82
90
97
101
104
108
111
113
114
114
113
113
112
112
112
112
111
111
111
111
112
112
113
113
114
114
115
116
116
117
118
118
119
120
120
121
121
122
123
123
124
125
125
126
127
128
128
130
130
130
131
131
131
132
133
134
134
135
136
137
137
138
139
140
140
141
143
145
146
148
150
151
152
153
154
155
157
158
159
160
161
162
163
163
163
164
164
164
163
162
160
158
156
154
151
148
145
142
139
136
132
129
127
125
123
122
120
120
119
118
117
117
116
115
114
114
114
114
114
113
113
113
113
113
114
115
115
115
115
114
114
114
114
114
114
113
113
113
113
113
113
113
113
113
113
113
114
114
114
114
114
114
114
115
115
115
116
117
117
117
118
119
119
120
120
120
120
120
119
118
116
114
111
109
107
107
108
109
110
112
113
113
113
112
112
112
112
112
112
112
113
113
113
113
114
114
115
115
115
116
117
117
118
118
118
119
119
119
119
119
119
118
118
119
118
118
117
118
118
118
119
120
120
120
122
124
126
127
126
123
119
116
113
113
113
114
115
117
118
119
120
120
121
120
121
122
123
123
124
124
126
129
132
136
137
136
133
128
124
121
119
119
119
119
119
117
116
115
114
115
115
116
116
117
118
118
118
118
118
119
119
119
120
120
119
119
119
119
119
119
118
118
117
115
112
110
109
111
116
125
141
162
187
213
236
245
245
244
236
205
161
119
88
70
65
69
77
88
97
104
109
112
115
116
117
117
116
116
115
115
115
115
115
116
116
117
117
117
117
116
115
114
114
114
116
117
118
120
121
121
122
122
122
121
120
119
118
118
118
118
118
119
119
120
121
123
124
126
128
129
130
131
132
133
134
135
136
137
138
139
140
142
144
145
147
149
152
154
155
156
156
155
155
156
157
158
159
160
161
161
161
159
158
156
155
155
154
154
153
151
149
146
144
140
138
135
132
130
128
126
125
124
123
122
120
117
115
113
112
113
113
112
111
108
105
103
102
101
102
103
105
106
107
107
108
109
110
110
112
113
114
115
116
117
117
118
118
118
118
118
118
117
117
116
116
116
117
118
120
120
121
122
122
122
123
124
124
124
124
124
123
123
124
124
124
124
122
121
120
121
121
122
121
119
117
116
115
116
117
118
118
117
116
116
115
115
115
115
116
116
117
117
118
119
119
119
118
118
118
118
118
118
118
118
119
119
119
119
119
119
118
118
118
118
118
118
118
119
119
120
120
121
121
121
122
122
122
123
123
125
126
128
129
130
130
129
128
126
125
125
125
125
125
124
123
122
121
120
118
117
116
115
115
115
115
114
114
114
114
114
114
115
114
115
116
117
117
117
116
116
116
115
115
115
115
117
121
132
149
173
199
223
241
244
244
235
207
165
120
83
60
50
51
59
69
80
90
96
100
104
107
109
110
110
111
111
111
110
110
110
110
110
110
110
110
111
111
111
112
112
113
114
115
116
116
116
116
116
117
117
117
117
118
118
119
119
119
120
120
121
121
122
123
123
123
124
125
125
126
127
128
130
132
134
136
139
140
141
141
140
140
138
138
139
142
146
149
151
150
149
148
146
147
148
150
152
154
155
156
157
158
158
157
156
155
153
150
147
143
139
136
132
129
126
124
122
120
119
118
116
114
112
110
108
108
107
106
105
104
104
103
103
103
103
103
103
103
104
104
104
106
106
108
108
109
109
109
110
110
111
112
112
114
115
116
116
117
117
117
117
117
116
116
116
116
116
117
118
117
117
117
116
116
117
118
120
121
122
122
121
120
119
118
117
115
114
114
116
119
120
120
119
117
114
111
110
108
108
107
107
107
109
111
113
114
115
116
116
116
116
116
116
116
117
117
118
119
119
120
122
123
124
125
126
128
129
129
129
129
128
127
126
125
124
123
122
121
120
119
118
117
116
115
115
116
118
119
121
122
121
120
118
115
112
110
109
110
110
111
112
113
114
114
114
112
110
108
107
109
115
125
141
164
191
218
241
245
245
244
229
191
143
101
73
60
60
69
79
90
97
101
103
105
108
110
111
112
113
114
114
114
114
114
115
116
116
117
117
118
118
120
122
124
125
126
126
126
126
126
126
125
125
125
124
123
122
122
121
120
119
119
120
121
122
124
125
127
128
129
129
130
131
132
132
133
134
134
135
136
138
139
140
141
142
144
145
147
149
151
152
153
154
155
156
157
158
160
162
162
163
164
164
164
164
165
166
166
164
161
155
149
143
138
134
132
130
129
127
126
124
123
122
120
118
116
114
113
112
111
111
111
111
111
112
111
111
111
110
110
110
110
109
109
109
109
109
111
113
115
117
118
118
117
115
113
111
108
107
105
106
107
109
110
112
112
113
113
114
114
115
115
115
116
116
116
117
117
117
116
116
116
116
116
117
117
118
118
117
116
115
114
113
113
113
114
114
115
116
116
116
115
114
113
114
114
115
115
116
116
116
116
115
115
114
114
114
114
114
114
115
117
118
119
119
120
119
119
119
119
119
119
120
121
122
123
124
125
125
125
125
125
124
123
122
122
121
119
117
116
115
114
113
112
112
111
112
112
113
113
114
114
113
113
112
112
111
111
111
111
111
111
112
112
113
113
112
111
110
108
108
112
119
132
152
177
203
227
244
245
244
237
208
164
120
86
66
59
62
70
81
92
99
105
108
112
115
116
117
117
117
116
116
117
118
118
117
116
114
114
114
114
114
114
113
113
112
113
113
115
117
118
119
119
120
120
121
121
122
122
122
121
121
122
122
122
122
122
123
123
123
124
125
126
126
128
129
130
130
131
132
133
134
135
137
138
140
140
141
142
144
145
146
147
148
149
151
152
152
153
154
154
155
156
156
156
156
156
155
154
152
150
148
145
142
138
135
132
129
126
122
119
116
114
112
110
108
107
105
104
103
102
102
101
101
101
101
101
101
101
101
102
101
101
102
103
103
103
102
102
102
101
102
102
103
103
103
103
102
103
104
105
106
107
106
105
104
103
104
104
104
105
105
105
106
107
107
107
108
108
108
107
107
106
105
105
105
106
106
107
107
107
108
108
108
109
110
110
111
110
109
108
107
107
106
106
107
108
108
109
111
112
113
113
114
115
116
116
116
118
119
121
123
124
124
122
121
120
119
119
117
116
114
113
112
111
110
109
109
110
110
111
110
109
107
106
105
104
104
105
105
106
108
109
110
111
110
110
109
108
107
105
102
99
97
98
102
112
128
151
177
202
225
240
242
228
199
156
110
75
53
44
44
51
61
72
80
86
92
96
100
104
107
108
110
110
111
111
112
113
113
113
113
114
115
115
115
114
114
115
116
118
119
120
119
117
117
117
119
121
124
126
126
125
123
120
118
116
115
116
119
121
122
123
124
125
125
126
127
128
130
132
134
135
136
138
139
141
143
144
145
147
148
151
154
159
164
169
172
172
170
166
162
158
157
156
155
155
155
155
154
153
152
151
149
148
147
146
144
142
140
139
137
135
132
130
128
126
124
122
120
118
116
114
113
112
111
110
108
107
105
104
102
101
100
99
99
100
100
101
103
104
105
105
106
106
107
107
109
109
109
110
111
112
114
117
121
125
126
125
122
119
116
115
113
114
115
116
116
115
115
115
114
113
112
112
112
113
114
114
113
113
114
114
114
115
116
116
117
117
118
119
120
122
126
130
134
136
135
132
129
125
123
122
124
125
125
124
123
122
120
119
119
118
118
118
117
116
116
115
114
114
113
113
114
113
112
112
111
111
112
112
112
112
112
113
113
113
113
114
114
113
112
109
107
107
110
115
126
144
168
194
219
239
245
244
232
201
157
115
82
63
56
60
70
82
96
109
121
128
128
123
118
114
112
112
111
111
111
110
110
110
110
109
105
102
99
99
100
103
106
109
112
113
114
114
115
116
116
117
118
119
121
122
123
124
125
126
126
125
125
126
127
128
129
130
131
132
133
134
136
136
137
137
139
141
144
148
152
154
154
152
149
147
146
146
147
148
150
152
154
155
157
158
158
160
160
161
162
162
162
162
161
160
158
155
153
151
149
147
144
140
137
134
132
130
128
126
123
122
121
121
122
122
122
121
119
117
116
115
114
112
110
108
107
107
107
109
110
112
113
114
114
114
114
114
114
114
115
115
116
116
117
117
118
119
120
121
123
124
124
122
120
118
116
114
113
113
113
114
115
116
117
118
119
120
121
121
122
122
123
123
122
122
121
121
120
121
121
122
123
125
126
128
130
130
130
129
129
129
131
132
132
132
132
131
130
130
130
131
132
133
133
133
133
132
132
131
129
128
126
125
124
123
122
121
121
121
121
121
121
121
121
121
121
121
122
122
122
122
122
122
122
122
121
121
121
120
118
115
112
112
114
119
130
147
170
196
221
243
245
245
244
233
199
154
112
84
71
71
77
86
97
106
112
117
120
122
124
124
124
123
123
123
123
122
122
122
122
124
126
130
132
133
134
133
131
128
125
121
119
117
118
119
120
121
122
122
122
122
123
124
125
126
128
128
129
129
129
130
130
131
131
132
133
133
134
134
135
136
137
138
140
142
145
147
149
150
151
151
150
149
149
149
150
151
153
154
156
158
160
161
163
164
165
165
165
164
163
162
161
159
156
153
150
147
143
140
138
135
133
131
128
126
125
123
121
119
118
116
115
114
113
113
113
112
111
111
110
110
110
110
110
110
111
111
111
111
112
112
112
112
113
113
114
116
118
120
121
120
119
117
117
118
120
121
121
118
114
110
108
108
108
110
112
114
115
116
116
116
116
116
116
116
116
117
117
117
117
117
117
117
117
117
118
118
117
117
117
117
118
118
119
121
123
124
124
123
121
120
120
120
122
124
124
123
122
120
119
119
121
123
126
128
129
128
127
126
126
125
125
124
123
121
120
118
117
117
117
117
116
115
113
112
110
110
110
110
110
111
112
113
113
114
114
114
114
114
115
114
114
112
110
108
107
108
111
120
134
155
180
207
231
245
245
244
233
199
154
112
80
63
60
65
73
84
94
101
105
110
112
113
114
114
114
113
113
113
113
114
115
115
115
115
115
116
116
116
116
116
117
117
117
118
118
119
120
120
121
124
126
128
128
127
123
119
116
114
113
114
115
117
119
120
121
122
124
125
126
128
129
130
131
132
133
134
135
137
138
139
140
141
143
144
146
147
148
149
150
152
153
154
155
156
157
157
158
159
159
159
159
159
158
157
156
154
151
149
146
143
140
137
134
131
128
126
123
121
119
118
116
115
114
114
114
115
115
117
117
118
117
115
112
107
103
101
100
101
103
105
106
107
107
107
107
106
106
106
105
105
105
106
106
106
108
109
109
110
111
113
113
114
114
113
111
109
106
103
99
98
98
100
103
106
108
109
110
111
111
112
112
113
114
114
115
115
115
115
115
115
116
116
116
116
115
115
116
115
116
116
115
115
115
115
115
115
115
115
115
115
115
115
115
115
116
117
117
118
118
119
120
120
120
121
122
122
123
124
124
125
127
128
130
131
131
131
131
130
129
128
127
126
125
125
126
127
128
129
127
123
119
116
112
110
108
107
106
107
107
108
108
109
109
109
109
110
110
111
112
115
117
118
117
114
114
114
118
125
135
149
168
188
208
226
240
243
235
209
170
128
92
69
59
60
67
76
85
94
101
105
109
112
113
113
113
113
112
113
113
113
113
114
114
114
115
115
115
115
114
114
113
113
112
112
111
111
111
111
110
110
111
112
112
112
112
112
113
114
115
117
119
121
122
124
125
126
126
127
128
130
130
131
131
132
133
134
135
137
139
140
140
140
140
140
140
141
142
143
144
145
146
148
150
152
153
155
156
157
158
157
157
158
158
159
158
156
153
149
144
140
138
136
135
134
132
130
128
125
122
119
116
114
113
113
112
112
111
112
111
111
111
111
111
112
112
112
112
112
112
112
112
112
112
113
113
113
112
112
112
111
111
112
112
113
113
113
114
116
118
120
121
119
116
113
111
111
113
116
119
122
124
125
125
125
125
125
125
125
125
124
122
121
120
119
118
117
116
116
118
119
120
120
118
116
114
111
110
110
109
109
110
111
112
113
114
115
115
115
114
114
114
114
114
114
114
114
114
114
115
115
116
117
119
120
121
121
121
120
119
118
117
116
115
115
115
115
117
120
123
127
129
130
130
129
128
128
126
125
124
122
121
120
119
118
117
116
116
115
115
115
115
115
116
116
116
115
115
116
116
117
117
116
116
115
114
114
114
113
112
109
107
106
108
112
122
138
161
187
212
235
245
245
242
221
182
137
98
71
58
56
62
71
80
89
95
100
104
106
107
108
108
107
106
106
105
105
105
105
104
104
103
103
104
104
105
106
107
108
109
110
110
110
110
110
111
111
112
113
113
115
116
118
120
122
123
125
126
127
129
130
131
133
133
134
134
134
134
134
134
135
136
138
140
142
144
146
148
149
149
150
149
149
149
150
151
152
153
155
156
158
158
159
159
159
160
161
162
163
163
163
162
161
159
157
154
151
149
146
143
140
137
134
132
131
130
129
128
125
122
119
115
112
109
106
105
104
104
105
105
105
106
106
107
108
108
109
109
109
109
109
110
110
110
110
110
110
110
110
110
110
111
112
112
112
112
111
111
113
115
117
118
119
117
114
110
107
106
106
107
108
110
111
112
112
112
113
113
113
113
113
113
114
114
114
114
115
115
114
114
114
115
115
115
116
116
116
116
116
116
117
117
117
117
117
117
117
117
117
117
117
117
118
118
118
119
119
120
120
120
121
122
123
123
124
124
124
124
123
121
119
118
118
117
116
114
113
111
110
110
111
112
114
115
116
117
118
119
119
120
120
121
121
122
124
127
130
134
139
144
147
146
140
131
121
113
109
109
110
113
115
116
116
116
114
114
113
112
113
113
114
115
116
116
116
116
115
115
115
115
114
115
115
116
116
116
116
116
114
112
110
109
109
112
119
131
151
176
202
227
244
245
245
240
212
170
125
90
69
61
64
71
82
92
101
107
111
114
115
116
116
116
115
115
115
114
114
114
115
115
115
116
116
117
117
117
118
119
123
126
128
128
125
120
116
113
112
112
113
114
115
115
116
118
119
121
122
124
125
125
126
126
127
128
128
129
130
131
132
134
136
138
141
143
145
146
148
149
148
146
142
140
139
140
142
145
147
148
149
150
152
153
155
157
158
160
161
161
162
161
160
159
158
155
153
150
147
145
142
138
135
132
129
127
126
125
126
127
127
125
122
118
113
109
105
103
102
102
102
102
103
104
105
106
107
108
108
109
109
108
109
109
109
110
110
110
110
111
111
111
111
111
112
112
112
112
112
112
112
112
111
111
111
112
112
113
113
113
113
112
111
110
109
109
108
107
107
107
107
107
108
108
109
110
111
112
113
113
114
114
115
115
116
116
117
118
119
119
119
118
118
118
118
119
122
123
124
123
121
117
114
112
112
113
115
116
117
117
117
117
116
117
117
118
118
118
118
117
117
117
117
117
117
117
117
118
118
118
118
118
118
118
118
119
120
121
123
123
124
124
124
124
122
120
118
116
115
115
116
118
119
119
119
119
119
119
118
118
119
119
119
119
118
119
119
120
120
121
121
120
120
120
120
120
121
121
123
125
127
129
130
129
128
125
122
120
120
120
120
120
120
120
119
119
119
119
119
119
119
120
120
120
120
121
121
121
121
122
122
123
123
122
122
122
122
123
124
125
126
127
128
129
130
132
134
134
134
133
132
131
130
129
128
128
127
126
126
125
125
124
123
121
120
118
116
115
114
114
114
114
113
113
112
112
112
113
113
114
113
114
114
114
113
112
111
113
117
126
140
161
188
215
240
245
245
245
244
224
185
140
104
81
72
73
80
90
99
107
112
116
119
121
122
122
122
121
121
121
120
120
120
120
120
121
121
121
122
122
121
121
121
121
122
122
123
123
124
124
124
125
125
126
126
127
128
128
128
129
129
130
131
131
132
133
134
136
136
136
136
135
134
134
134
135
136
137
138
139
140
141
142
144
145
147
149
151
152
153
154
156
157
158
160
160
161
162
164
165
165
166
166
167
167
166
166
165
163
161
159
156
154
150
147
144
140
137
134
132
129
126
124
122
120
119
118
117
116
115
114
114
113
112
112
112
112
112
111
111
111
111
111
111
111
110
111
111
111
112
112
112
112
111
112
112
112
112
112
113
113
114
114
114
115
115
115
114
113
112
111
111
112
113
114
115
116
116
117
118
118
118
118
117
117
117
117
117
116
114
112
110
110
109
110
111
112
114
114
115
114
113
112
111
111
112
112
113
114
115
117
118
118
117
116
114
113
112
112
111
111
111
111
112
113
114
114
114
115
115
115
114
114
114
114
115
116
117
117
117
117
118
119
120
120
121
122
121
118
115
112
110
109
108
108
108
108
108
108
109
110
110
111
111
112
113
113
113
114
114
114
114
114
114
115
115
115
115
115
115
115
115
115
115
115
115
115
115
116
116
116
116
116
116
116
116
116
116
116
116
116
116
115
115
114
114
114
114
114
115
116
116
116
116
116
116
117
117
117
116
117
117
117
117
118
119
119
121
121
122
123
122
121
119
118
120
122
125
126
126
124
122
120
119
119
119
119
119
119
119
119
119
119
119
118
118
117
117
117
117
116
115
115
116
118
120
122
121
120
118
118
117
117
116
114
112
111
110
111
112
112
111
110
110
110
112
118
131
151
176
204
230
245
245
245
244
226
186
140
100
75
63
62
69
78
88
96
102
107
110
112
113
115
115
116
115
115
115
116
116
116
116
117
117
117
117
118
118
119
121
122
122
123
123
122
122
120
118
117
117
116
116
116
115
114
114
114
115
116
117
118
119
120
121
122
123
124
126
127
128
130
131
133
134
136
137
138
139
141
143
144
146
147
149
150
151
154
156
158
160
161
162
163
163
162
161
161
162
162
163
164
165
165
164
163
161
160
157
154
152
149
146
142
140
136
133
130
127
124
122
120
119
118
117
117
117
117
117
118
118
116
113
110
108
106
105
105
106
107
109
110
111
112
113
113
113
113
114
114
114
114
114
114
114
114
114
114
113
114
113
114
114
114
114
114
114
115
115
115
115
115
116
116
116
115
115
116
116
116
116
116
116
116
116
117
116
116
116
117
117
117
117
117
117
117
117
117
116
117
117
118
119
121
122
123
124
124
123
121
119
117
115
113
113
112
112
112
113
114
115
115
116
116
116
116
116
117
117
117
116
117
116
116
116
116
116
116
116
115
115
116
116
116
116
117
117
118
118
119
119
119
119
119
119
119
119
119
119
119
119
119
120
120
120
120
120
120
119
120
122
123
124
124
123
121
120
118
117
117
117
119
120
121
122
122
122
124
125
126
128
128
128
128
128
127
126
125
125
124
123
122
121
121
121
121
121
120
118
118
117
116
116
116
116
116
116
116
117
119
119
119
119
117
115
114
112
110
109
108
108
110
117
129
147
171
199
226
245
245
245
244
234
199
153
109
79
63
59
65
74
86
95
102
107
111
113
115
116
116
117
117
118
118
118
118
117
117
117
116
116
117
118
118
120
120
121
121
121
120
120
120
120
120
120
120
120
120
120
121
122
122
123
124
125
125
125
126
126
127
127
127
128
129
129
130
131
132
133
134
136
137
138
140
142
143
143
144
144
144
146
147
149
151
152
153
155
156
157
158
159
161
162
163
164
165
165
165
164
163
163
161
159
157
155
152
148
145
141
137
133
129
126
123
121
119
118
117
115
114
113
113
113
113
112
110
109
108
107
106
106
106
106
106
106
106
107
107
107
107
107
108
108
108
108
108
109
109
109
109
109
110
110
110
110
110
110
110
110
111
111
111
111
111
112
112
112
111
111
111
112
112
113
113
113
114
114
114
115
115
115
114
114
114
114
113
112
112
111
111
111
111
112
113
113
113
114
114
114
114
114
115
115
114
115
115
115
115
115
115
115
115
115
115
115
115
115
115
115
114
115
115
115
116
115
115
115
115
115
115
116
116
116
116
116
117
117
117
117
117
118
118
118
118
118
118
117
118
118
118
118
118
118
118
118
118
118
118
118
118
118
118
118
118
118
119
119
118
118
118
118
118
118
117
117
117
117
117
117
116
116
116
116
116
116
117
117
117
118
118
118
119
119
120
122
123
124
127
129
131
133
134
132
129
125
121
119
118
117
117
117
119
120
120
120
117
115
114
113
113
114
115
116
117
118
118
118
118
118
117
117
118
118
118
118
117
115
112
113
116
122
135
154
179
206
232
245
245
245
244
228
190
144
105
79
67
66
72
81
92
101
107
111
115
117
118
118
118
118
118
117
117
117
117
117
117
118
118
119
119
120
120
120
120
120
120
121
121
122
122
122
122
122
123
123
124
124
125
125
125
125
125
126
127
129
131
133
136
139
140
140
138
134
131
128
128
128
130
132
135
137
139
141
143
144
145
146
147
149
150
152
154
156
157
158
159
160
162
163
163
164
165
166
166
166
166
165
165
164
163
161
158
155
152
149
146
143
139
136
132
129
126
124
122
120
119
117
115
114
113
111
111
110
110
110
109
110
111
111
111
110
108
105
103
101
100
100
101
104
106
108
108
109
109
110
110
109
109
109
110
110
111
113
114
115
116
117
118
118
117
116
116
115
115
115
116
116
116
117
118
118
117
116
114
114
115
115
116
117
118
118
118
118
117
117
117
117
117
118
118
118
118
119
120
120
121
121
122
122
122
123
122
122
120
118
115
113
111
110
110
110
110
111
111
112
112
113
114
114
114
114
115
115
115
115
116
117
119
120
121
121
121
120
120
120
121
121
121
121
121
119
117
116
115
115
115
116
117
117
117
118
118
118
119
119
119
119
120
121
121
121
121
122
122
123
124
125
127
128
130
130
129
128
126
124
123
122
121
120
120
119
120
120
120
120
119
117
115
114
112
113
112
113
113
113
113
114
114
114
114
114
115
115
116
116
116
115
113
110
110
109
111
116
128
146
170
197
222
242
245
244
242
220
180
135
98
73
61
62
69
80
91
99
104
106
108
109
110
111
111
110
109
107
107
108
109
110
112
112
112
112
113
113
113
114
115
115
116
117
119
120
122
124
124
122
120
117
115
114
114
116
116
118
118
118
117
117
118
119
119
120
121
122
123
124
126
127
128
129
129
130
131
132
134
135
137
138
140
141
143
144
147
148
150
152
153
154
155
155
155
156
157
158
158
158
159
159
159
159
159
159
158
156
154
152
149
146
143
138
134
129
123
118
114
111
110
109
109
109
110
109
109
109
109
109
108
108
108
107
107
107
107
106
107
107
106
106
106
106
106
106
106
106
106
107
107
108
108
109
109
109
109
110
110
110
110
110
110
111
110
110
110
111
111
111
112
112
112
112
112
111
111
111
111
111
112
112
111
111
111
112
112
112
112
112
112
112
113
113
113
113
113
113
113
113
113
113
113
114
114
115
116
117
118
118
118
118
117
118
118
117
117
116
115
115
116
117
118
120
122
123
125
126
127
128
128
128
127
127
126
124
123
121
120
119
118
118
116
116
115
115
114
114
114
114
114
114
114
114
114
114
115
115
116
116
116
116
116
116
115
114
112
110
109
109
112
117
129
147
171
199
224
244
245
244
240
214
171
126
91
68
58
58
65
75
86
95
102
107
111
113
115
116
117
118
118
118
117
117
117
118
118
119
119
119
119
119
119
119
119
120
120
121
121
122
122
122
122
122
122
123
124
124
124
124
123
124
125
125
126
127
128
128
129
129
130
130
130
130
131
132
133
134
135
136
138
139
140
141
143
145
146
148
150
151
152
154
155
157
159
160
162
163
165
166
167
168
169
168
168
168
167
165
162
160
157
155
152
149
146
142
139
135
131
128
126
123
122
120
118
116
115
114
112
112
111
111
110
110
111
110
110
110
110
110
111
111
111
111
111
111
111
111
111
111
111
111
111
111
112
112
111
112
112
112
113
113
113
114
115
115
114
114
114
114
113
113
113
113
113
113
114
115
115
116
116
115
116
116
116
116
116
117
117
118
120
122
124
125
126
126
125
124
122
120
118
115
112
111
112
112
113
113
112
110
109
110
111
112
114
115
116
117
119
120
121
122
124
126
127
130
132
133
134
132
128
122
115
109
104
102
102
103
105
108
110
112
113
114
114
115
115
117
117
118
119
120
120
121
121
122
122
123
125
127
129
130
130
130
130
128
127
126
125
123
123
123
122
121
120
119
116
114
114
114
114
115
116
115
114
113
112
113
114
116
118
119
119
119
119
118
119
119
119
120
122
122
122
122
123
125
131
143
162
187
212
235
245
245
243
223
183
138
101
76
65
64
70
79
89
98
104
109
112
115
117
119
119
120
120
121
121
123
128
132
134
132
129
124
124
130
137
142
142
134
122
112
105
102
103
107
111
116
120
124
126
127
127
127
128
129
129
130
130
130
131
133
134
135
135
136
139
141
143
144
146
147
147
147
147
146
146
145
145
146
146
146
144
141
140
139
138
135
132
131
134
139
146
152
153
152
152
156
164
171
175
176
174
171
166
162
159
158
156
153
150
147
144
142
139
136
134
132
130
129
128
127
127
127
127
127
128
129
129
129
129
129
129
129
129
129
129
129
128
127
125
124
123
123
123
123
122
122
122
122
121
120
122
125
128
128
127
127
129
133
136
138
140
139
138
136
135
136
136
135
133
132
131
132
132
132
131
129
127
125
125
125
126
127
128
129
129
129
129
129
129
129
129
128
128
128
127
126
126
126
126
125
124
123
123
123
124
125
125
123
122
120
119
117
117
116
117
119
121
122
124
126
128
130
132
133
133
133
131
129
128
127
126
126
125
124
122
121
120
119
118
116
115
116
118
118
117
115
112
109
107
107
107
109
110
112
114
115
115
115
115
116
115
114
112
110
107
106
107
110
119
135
157
184
211
235
244
245
242
222
185
143
105
76
60
56
59
66
76
85
92
98
103
106
108
109
109
109
109
109
109
108
109
109
109
110
110
111
110
111
111
112
113
114
115
116
117
119
119
119
118
116
116
117
118
118
118
118
117
116
116
117
118
120
121
122
123
124
124
124
123
124
124
124
125
125
126
126
126
126
127
127
127
127
126
125
125
125
127
129
131
133
135
136
138
140
141
143
144
145
146
148
149
151
152
152
151
149
146
143
140
138
136
135
133
131
129
128
127
126
126
127
127
126
124
123
123
124
124
122
119
113
108
104
101
101
102
103
104
105
106
107
108
108
108
108
108
108
109
109
109
109
109
108
108
107
107
107
106
106
105
104
104
103
104
105
106
108
109
109
109
108
108
108
108
107
104
102
102
102
102
104
105
105
106
106
107
107
108
108
108
108
108
108
108
107
107
107
106
105
106
108
111
113
114
113
112
110
109
108
107
106
106
105
105
105
106
107
108
109
110
110
111
112
113
113
114
115
117
119
121
123
124
125
124
122
120
119
119
118
118
119
118
118
117
116
115
115
119
124
128
129
124
115
107
102
100
101
103
104
106
107
108
109
110
111
112
112
112
112
110
109
106
104
104
106
112
126
146
172
198
221
239
244
243
228
194
150
108
76
58
52
55
62
72
82
90
96
100
104
107
110
110
110
109
107
105
104
104
104
104
104
105
106
108
108
106
104
103
105
110
113
117
119
118
114
103
90
78
72
71
75
81
87
93
97
101
103
105
107
109
112
115
118
120
123
126
129
131
132
133
133
132
131
130
129
128
128
127
127
128
129
130
130
131
132
133
135
137
140
142
145
147
148
150
151
152
153
154
154
153
152
151
149
147
144
141
137
133
130
128
125
122
120
118
117
116
115
114
112
111
109
109
109
108
108
108
107
106
106
105
105
104
104
105
104
105
106
106
107
108
109
109
108
106
103
100
99
99
100
102
105
108
110
110
109
109
112
118
123
128
128
126
126
127
130
129
124
117
110
107
106
105
104
102
100
100
102
104
107
110
112
114
115
116
118
119
119
119
119
119
120
122
124
125
126
126
125
123
121
119
117
114
113
110
107
104
101
101
100
98
98
99
99
99
100
101
106
108
110
114
116
115
113
113
115
119
122
125
130
134
136
133
127
119
117
119
124
130
135
141
153
175
202
230
245
246
245
245
245
230
191
145
108
84
73
74
82
93
105
115
122
127
130
133
135
135
132
125
115
108
105
106
109
116
123
131
138
143
145
148
150
152
151
150
148
145
143
141
139
137
137
137
137
138
139
141
142
143
144
145
145
147
147
148
149
150
150
150
150
148
148
149
151
154
156
157
157
158
159
161
161
162
162
164
164
165
167
168
169
169
168
163
157
154
156
165
175
185
193
197
198
196
191
185
178
172
166
160
156
153
152
150
147
144
142
139
137
135
134
132
130
129
127
125
124
122
120
119
119
119
120
122
125
129
132
134
133
127
119
111
107
107
110
114
117
117
116
116
118
120
122
124
125
125
125
124
124
123
122
123
124
125
125
125
126
126
124
122
120
120
122
122
121
119
117
111
106
102
98
94
93
97
103
107
110
113
115
118
123
128
131
133
134
133
132
130
127
124
124
123
123
123
124
126
127
129
131
133
134
134
134
133
133
133
133
133
132
131
131
131
130
131
131
130
128
124
121
121
120
119
116
112
107
105
107
112
116
120
121
122
123
123
122
121
120
119
118
117
115
113
112
113
116
123
137
158
183
209
231
245
245
244
229
195
152
111
80
62
55
60
70
80
91
99
105
110
113
115
115
114
112
111
111
111
112
112
112
112
112
112
112
112
111
111
112
113
114
115
116
117
117
117
117
117
117
117
118
121
124
127
128
127
126
125
123
122
121
120
120
122
122
122
121
121
122
124
125
127
129
131
133
135
136
136
136
136
137
139
142
144
146
148
151
152
153
154
156
157
158
158
158
157
155
152
151
151
152
153
152
151
151
150
149
147
145
143
141
138
135
132
128
127
125
124
122
120
118
116
115
114
113
112
111
110
109
109
110
111
111
110
110
111
113
113
111
109
107
105
104
104
103
103
103
103
104
105
106
106
106
106
105
105
105
104
104
102
101
101
102
102
103
103
104
105
106
107
107
107
105
104
104
105
106
106
106
106
106
107
110
114
118
121
122
122
121
120
118
117
117
116
117
117
117
117
117
117
118
119
120
121
123
123
122
122
121
121
120
119
118
116
114
111
109
109
110
111
112
111
110
111
113
114
115
114
113
112
110
108
107
106
105
105
105
105
105
106
108
108
109
108
105
104
103
103
104
108
117
131
152
177
200
222
239
244
237
213
175
132
96
72
59
56
61
68
78
88
95
101
105
108
110
111
111
110
109
109
109
109
109
109
109
109
109
109
109
108
108
107
106
107
108
109
109
109
109
109
109
108
108
109
109
110
112
115
117
117
115
113
112
112
112
112
112
112
113
113
114
115
115
116
118
119
120
121
123
124
126
129
131
134
136
138
140
141
142
144
145
148
149
151
153
154
155
157
158
160
160
160
160
159
157
156
154
153
152
150
147
143
140
137
135
132
131
130
130
132
134
133
129
121
112
105
102
101
101
100
98
96
94
92
93
96
99
103
105
106
108
108
109
110
113
118
122
124
122
116
108
101
98
100
107
114
118
119
115
108
101
97
97
100
103
107
109
112
113
114
114
115
114
114
114
113
113
114
115
115
116
116
117
118
119
121
124
125
125
125
123
121
119
121
124
131
136
137
132
124
117
113
112
114
118
121
123
124
124
123
120
118
116
116
116
115
114
114
114
116
117
117
116
114
112
110
108
106
103
101
100
101
104
108
112
115
116
115
113
111
109
108
109
108
108
111
116
123
133
146
163
184
204
223
238
241
230
203
164
124
92
72
62
62
67
75
84
92
99
104
108
109
109
109
108
106
104
104
103
104
104
105
107
108
108
110
110
111
112
112
113
113
114
114
115
116
117
118
118
118
118
117
117
117
117
118
120
120
120
120
120
122
124
126
126
125
122
122
126
132
137
138
135
128
122
122
124
130
135
138
139
138
137
136
136
139
142
147
150
154
156
157
158
159
160
161
162
163
163
162
162
163
166
168
168
165
161
156
150
145
139
134
129
124
121
119
119
120
121
121
121
120
119
118
118
116
115
113
111
110
109
108
110
112
113
113
114
112
110
109
108
108
108
111
114
116
118
119
122
124
124
124
121
118
115
112
111
112
114
116
116
117
115
114
112
112
113
114
115
116
116
116
117
117
117
118
121
125
128
128
127
126
126
126
123
118
111
106
102
102
104
107
111
112
112
111
111
110
110
112
116
119
122
124
125
125
126
128
130
132
135
138
142
144
145
142
139
134
129
125
122
120
117
115
113
112
112
112
113
114
115
115
116
117
117
116
116
116
116
116
116
116
117
118
118
118
118
119
118
116
115
113
111
112
114
119
128
143
164
189
214
236
245
245
242
222
184
141
104
79
66
63
67
74
85
94
101
106
109
111
113
113
112
112
114
115
117
118
120
120
119
116
114
112
112
112
114
114
114
114
113
114
115
116
116
116
115
115
115
116
118
116
115
114
115
118
123
127
130
133
134
133
131
129
127
127
128
129
130
133
136
139
141
142
141
139
137
136
137
140
143
145
146
146
146
146
148
149
151
154
156
158
160
161
162
165
168
170
170
168
166
163
161
158
155
152
148
144
138
133
129
127
125
123
123
122
121
121
120
118
117
115
115
115
115
115
114
113
112
112
112
112
113
114
114
115
116
116
117
117
117
118
117
116
113
109
104
101
100
100
101
102
103
104
105
107
109
111
111
111
110
111
112
113
114
114
115
114
115
115
115
115
114
113
114
115
116
117
118
119
121
122
124
125
124
121
117
112
107
104
103
104
105
107
109
110
111
112
113
113
114
114
115
115
115
115
115
116
116
116
115
115
116
118
118
119
120
120
119
120
122
124
126
127
127
128
129
129
129
128
127
126
124
122
120
119
117
116
115
114
115
116
117
118
118
117
115
112
109
109
110
112
113
113
111
110
108
108
109
110
111
112
112
110
107
106
105
106
109
118
132
153
179
206
230
245
245
244
234
202
160
119
88
69
64
68
76
85
90
93
95
98
104
110
114
113
111
106
103
102
104
106
107
110
113
114
115
116
116
115
116
116
117
118
119
120
121
121
122
122
123
125
128
129
130
128
125
122
120
119
119
119
119
120
122
124
126
127
128
128
128
128
127
126
126
126
128
130
134
139
142
143
142
140
140
141
143
145
147
149
151
153
155
157
159
160
161
162
164
165
167
170
173
174
174
170
166
161
158
154
151
145
139
133
128
124
122
120
119
119
118
118
117
115
114
113
113
113
113
113
112
111
111
112
112
113
113
113
113
115
116
116
117
118
118
119
120
119
118
116
112
108
105
104
104
105
105
106
107
108
110
112
113
114
115
115
115
114
113
113
113
112
112
112
114
115
116
117
117
118
118
118
119
119
119
119
118
119
120
120
119
117
115
113
112
111
111
111
112
114
115
116
116
116
116
116
116
115
115
116
116
116
116
116
115
116
116
115
115
115
115
115
115
115
115
115
115
116
116
116
116
116
116
117
117
118
118
118
118
118
118
118
118
118
118
118
118
119
119
119
119
119
120
120
120
120
120
120
120
121
122
122
123
125
126
130
133
137
138
137
135
132
129
126
122
119
116
113
112
112
113
114
114
114
113
113
113
113
114
115
116
117
117
117
117
118
119
120
122
122
122
122
123
123
122
120
117
113
109
106
105
108
116
131
153
180
208
232
245
245
244
238
208
164
120
87
68
61
63
71
81
91
98
104
107
110
112
113
113
112
112
111
110
110
111
112
113
113
114
115
116
117
117
116
116
115
115
116
116
116
116
115
114
113
113
114
115
116
117
117
117
118
118
119
120
120
121
122
123
124
124
125
127
130
133
136
138
138
136
132
130
127
127
129
131
133
135
137
138
140
143
145
147
149
151
153
155
156
158
159
160
162
163
164
164
163
161
159
157
157
156
155
154
152
149
146
142
138
132
127
121
116
114
112
111
111
111
110
110
109
107
106
106
106
105
105
105
106
106
106
106
106
105
104
104
105
107
108
109
109
109
109
108
108
108
109
109
109
108
108
107
106
106
105
105
106
106
106
107
107
107
108
108
108
108
108
108
109
109
110
110
111
112
111
111
110
110
110
110
110
110
110
111
111
111
112
112
113
113
113
113
113
113
113
113
113
113
112
111
111
112
114
115
116
117
117
116
115
113
112
112
112
112
113
114
117
119
122
124
124
124
123
123
123
123
123
121
120
119
119
118
119
119
118
117
116
116
114
113
113
112
112
113
112
112
112
112
113
113
113
112
113
114
114
114
114
114
114
114
114
114
113
112
110
108
106
106
108
114
126
146
172
200
227
245
245
245
244
226
185
136
96
69
57
56
62
72
83
93
101
107
111
114
116
117
117
116
114
111
108
104
102
102
102
103
104
106
108
109
109
109
109
110
111
111
111
111
112
113
113
113
114
114
114
115
115
115
116
116
116
117
117
117
117
118
118
119
120
121
122
122
123
124
125
126
128
128
130
131
132
134
135
137
139
141
143
144
145
146
148
149
151
152
153
154
155
156
156
156
156
156
155
155
154
153
151
149
144
141
138
135
132
128
125
122
120
117
114
112
111
110
109
108
107
106
106
105
104
103
102
102
102
102
102
102
103
103
103
103
103
103
102
102
103
103
104
103
104
104
104
105
105
105
106
106
106
107
107
108
108
108
108
108
108
108
109
109
109
109
109
110
110
111
111
111
111
111
111
111
111
110
109
108
108
109
110
111
111
112
113
114
117
120
122
124
125
125
125
122
119
116
114
112
110
108
107
106
105
105
107
109
112
114
116
119
121
123
124
125
124
123
122
121
119
116
115
114
114
118
124
130
134
136
136
136
133
129
124
116
107
99
93
92
94
98
102
106
109
111
112
113
112
111
111
111
110
109
107
105
105
107
113
124
141
165
193
220
243
245
245
244
235
203
158
117
86
68
62
67
78
90
102
109
109
104
98
93
91
93
97
102
106
111
115
117
119
121
122
121
121
120
119
118
118
116
115
115
115
115
116
116
116
117
118
118
119
120
122
125
126
126
126
125
125
126
128
129
128
127
125
125
125
126
128
130
131
132
134
136
137
138
140
142
143
146
147
149
150
152
153
155
156
158
160
161
162
162
163
164
165
166
167
168
169
169
168
168
166
164
161
159
156
153
150
147
143
139
136
133
132
130
127
123
119
115
111
109
108
109
109
109
110
109
109
109
109
109
109
109
109
110
111
113
114
115
117
118
118
117
116
114
112
111
111
112
110
108
103
99
96
96
97
98
99
99
98
97
98
100
102
105
107
110
112
114
116
117
119
120
121
122
122
123
124
125
125
125
124
123
123
123
124
124
125
125
125
124
124
124
124
125
126
128
130
131
131
130
129
129
128
127
124
120
118
115
114
114
115
116
118
121
123
125
126
127
128
129
130
131
132
132
132
132
132
132
132
133
134
134
134
134
134
133
133
132
131
129
126
123
122
122
123
122
120
117
112
109
108
110
111
114
115
116
116
117
118
118
118
118
118
118
117
116
115
115
115
114
113
111
110
110
112
118
129
147
172
199
224
244
245
245
244
231
195
150
108
79
64
60
64
73
84
94
102
106
108
107
106
105
105
105
106
108
110
111
113
114
115
116
117
118
120
122
125
128
129
129
126
122
120
119
121
124
127
127
125
121
118
115
114
116
117
119
121
122
122
123
124
124
125
127
130
133
136
138
139
141
143
146
148
150
151
151
151
150
148
147
147
147
148
149
151
153
156
158
159
158
156
154
151
149
147
147
148
150
152
153
153
153
152
150
148
146
143
141
139
137
135
132
130
128
127
125
125
125
124
124
124
123
124
124
123
124
123
122
122
121
121
121
121
121
121
121
120
120
120
120
121
121
121
123
125
128
130
132
131
129
127
125
122
118
114
109
106
105
106
108
110
113
114
115
116
115
115
115
116
116
117
117
119
121
121
121
121
120
120
121
121
120
118
116
114
113
113
113
113
112
112
113
113
114
116
117
117
117
118
118
119
120
120
121
121
121
120
120
120
119
119
118
117
116
116
115
114
113
113
112
110
108
107
105
104
104
103
104
105
106
107
108
109
110
111
113
114
116
117
117
117
116
117
117
117
118
119
120
121
122
123
124
125
126
126
125
124
124
124
124
124
125
127
130
132
134
134
134
132
130
128
127
127
128
128
128
126
125
125
126
126
125
125
123
121
119
117
116
116
116
117
117
117
117
117
117
118
118
118
119
119
119
119
118
116
114
113
112
115
121
133
152
177
205
231
245
245
245
244
227
186
138
97
71
61
61
68
79
90
98
105
109
112
114
114
114
114
113
113
113
113
114
114
114
114
115
115
115
116
116
116
116
116
116
117
117
117
117
117
118
118
118
118
118
119
119
120
122
124
127
129
130
129
127
124
122
121
120
121
123
124
126
127
129
130
131
132
133
134
135
136
138
138
140
141
142
144
146
148
149
150
152
153
154
155
157
157
158
160
161
162
164
166
167
167
167
165
162
159
154
149
144
139
135
131
128
125
123
120
118
116
115
114
113
112
111
110
109
108
108
107
107
107
107
108
108
108
107
108
110
111
112
111
110
109
109
111
111
111
109
106
102
99
98
99
101
103
105
106
107
107
108
108
108
108
108
109
108
109
109
109
110
111
111
112
113
115
117
119
120
121
120
118
115
113
110
108
105
102
99
97
97
98
101
104
106
108
109
110
110
110
111
111
112
113
113
113
113
113
113
112
112
112
112
113
113
113
114
115
116
116
117
117
117
118
118
118
119
121
123
124
126
127
127
126
125
124
123
122
121
120
119
118
117
115
114
114
114
115
115
116
117
118
119
120
121
121
119
117
115
112
109
107
106
106
106
107
108
110
110
109
108
106
105
106
110
118
132
153
180
207
232
245
245
244
236
203
156
111
79
60
54
58
67
79
90
100
106
111
115
117
117
117
116
115
114
115
116
117
118
119
120
120
120
120
120
121
121
122
123
123
122
120
118
115
114
114
115
116
118
118
118
119
119
120
121
121
122
122
123
124
125
126
128
131
132
134
134
135
135
136
138
141
144
148
150
151
151
150
148
147
146
148
149
152
153
154
155
157
158
160
162
163
164
165
166
167
168
168
169
168
166
164
162
159
156
153
150
147
144
141
138
135
132
129
126
123
120
118
116
114
112
109
108
108
108
108
107
107
106
104
105
106
107
108
109
110
108
107
105
104
104
105
106
106
104
101
98
96
96
98
101
104
107
109
110
110
110
110
110
110
109
109
110
110
110
111
111
112
112
113
114
115
115
116
116
116
116
116
116
116
117
118
119
120
121
122
122
121
120
118
118
117
117
117
116
115
115
115
116
117
117
118
118
119
120
120
121
121
120
120
120
120
120
121
121
121
121
121
122
122
122
123
123
124
125
126
127
127
126
124
121
118
116
116
117
118
119
120
120
120
118
117
116
115
114
115
116
117
117
118
119
120
121
123
125
128
130
133
135
138
139
140
139
139
139
139
138
136
134
132
130
128
126
123
120
117
115
113
114
114
113
113
113
114
115
116
117
117
117
117
116
116
116
117
117
118
119
119
118
117
114
112
111
112
116
124
139
162
189
218
243
245
245
245
244
223
180
134
98
76
67
67
72
81
91
100
106
111
114
116
118
118
118
119
119
119
120
120
121
121
121
121
122
122
122
122
121
120
120
121
122
123
122
120
118
116
115
115
115
116
118
119
120
120
121
122
123
124
126
126
127
127
128
129
130
131
131
131
132
132
132
133
134
135
137
139
141
143
145
148
151
154
154
154
152
149
147
146
146
148
151
153
156
158
158
159
158
158
158
158
157
156
155
154
151
149
147
145
143
141
139
137
134
132
130
128
127
125
124
123
122
120
118
115
112
110
109
109
109
110
111
112
112
112
112
111
110
109
109
108
108
108
109
112
116
119
120
117
112
106
101
99
99
101
103
105
106
105
104
103
102
100
99
99
98
97
96
95
95
95
96
99
102
105
108
112
116
119
118
116
112
108
106
106
108
110
113
115
116
117
119
121
123
125
127
128
128
126
125
123
121
119
118
117
116
115
113
112
111
110
110
110
110
110
111
112
113
114
115
116
118
119
119
119
119
118
118
118
118
119
119
120
120
120
120
120
121
121
121
121
122
124
125
127
129
129
129
129
128
127
128
128
128
129
129
129
129
130
131
130
127
123
118
113
110
109
109
109
111
113
114
114
114
113
114
113
113
114
114
113
113
112
112
111
109
109
111
115
126
143
168
198
226
245
245
245
244
226
184
134
91
62
49
50
58
70
83
94
102
108
113
117
119
119
120
120
120
121
122
124
124
125
125
125
126
127
126
125
124
123
121
119
117
115
115
115
115
116
116
117
117
117
118
119
119
119
120
122
124
127
130
130
129
128
127
127
129
129
130
130
129
128
127
126
127
128
130
131
132
134
136
138
141
143
145
147
149
151
152
153
155
156
158
159
160
160
160
160
161
161
160
160
159
158
156
154
151
148
146
143
140
137
134
130
126
124
121
119
116
113
111
109
108
107
106
106
109
111
113
114
113
112
113
113
114
115
115
115
114
113
114
114
115
115
116
117
118
119
119
120
120
120
119
118
116
115
113
113
115
116
118
118
119
119
120
122
123
123
123
122
121
121
120
119
118
118
116
114
113
112
113
114
115
116
116
115
115
115
115
116
117
118
119
119
118
118
117
117
117
117
117
116
116
116
116
116
116
116
116
116
116
116
116
115
115
115
114
114
114
113
113
113
113
113
114
115
116
117
117
118
117
117
118
119
120
121
121
121
120
120
120
121
122
125
128
130
130
129
126
122
119
117
117
117
117
116
116
115
115
115
114
114
113
113
114
114
114
114
113
112
112
112
113
114
116
118
119
118
116
114
112
109
108
107
107
106
104
102
102
105
110
122
141
166
193
220
242
245
245
244
223
183
135
95
69
57
58
66
77
88
97
103
108
111
113
114
115
115
115
115
115
115
116
116
116
117
117
118
119
121
122
122
122
122
123
125
127
128
128
128
128
126
125
124
122
121
120
119
120
121
122
124
126
127
127
127
126
127
127
128
129
130
131
132
132
132
133
133
133
134
135
136
137
138
140
142
143
145
146
148
149
151
153
155
158
161
164
166
165
162
160
157
155
154
153
153
153
153
152
150
148
145
142
139
136
133
129
126
123
120
118
115
113
111
110
108
107
106
106
106
105
105
105
105
105
104
104
104
106
108
110
110
108
105
104
103
104
104
102
100
98
96
96
97
98
100
102
104
105
106
106
107
108
108
110
111
111
112
114
115
115
115
116
116
115
115
113
111
109
108
108
108
109
110
110
111
111
111
110
110
109
109
109
109
109
109
109
110
111
112
113
114
114
115
115
117
120
122
123
122
119
114
110
108
108
109
112
114
116
117
119
119
120
120
121
121
121
121
123
123
124
125
124
124
124
124
124
123
121
118
116
113
111
110
109
109
109
109
108
108
107
107
107
106
107
108
108
108
109
109
109
110
111
112
113
114
114
115
114
113
112
110
109
111
115
124
140
163
189
216
239
245
245
243
225
185
136
93
65
50
48
55
65
76
87
96
102
106
110
112
114
115
116
116
116
116
116
116
116
116
116
116
117
118
118
118
118
119
119
118
118
118
118
118
118
117
117
117
117
118
120
122
124
125
125
125
126
126
126
126
126
127
126
127
126
126
126
127
128
128
130
131
132
133
134
136
136
137
139
141
144
147
150
151
152
152
151
152
153
153
153
151
150
150
150
152
153
155
156
156
155
154
152
150
148
145
143
140
138
135
133
131
128
126
124
121
119
117
115
114
113
111
110
109
107
106
105
104
103
102
102
102
102
102
101
101
101
102
103
105
105
106
106
106
107
108
109
110
112
112
113
113
112
110
107
105
104
103
103
103
104
105
107
109
110
110
111
112
112
112
112
113
114
116
117
118
119
120
119
119
119
118
118
117
117
116
115
113
112
111
111
112
112
112
114
115
115
116
117
117
117
118
118
118
119
119
119
119
118
119
118
119
119
119
120
120
121
121
122
122
123
123
124
125
125
125
125
126
126
126
126
126
127
128
130
131
132
131
131
130
129
128
128
127
128
127
127
128
129
129
128
126
124
122
121
120
120
120
120
121
121
122
122
121
121
121
121
121
121
121
121
121
121
120
119
117
115
114
116
120
130
145
168
194
220
242
245
245
244
235
201
155
112
82
65
60
64
73
82
92
100
106
111
115
118
120
122
123
124
124
122
120
117
115
114
113
112
111
112
113
115
116
116
115
115
115
115
116
117
118
119
120
121
122
122
123
123
124
124
124
124
124
124
125
126
127
128
129
131
132
134
136
137
137
138
139
141
143
144
145
146
147
149
150
152
154
156
157
158
159
160
162
165
168
172
174
173
171
168
164
162
161
161
163
165
165
165
163
161
158
156
153
150
147
144
140
137
134
130
126
123
120
118
117
116
115
113
110
107
106
108
110
110
109
104
99
95
91
89
89
90
92
95
98
100
102
104
105
106
106
107
108
109
110
112
112
112
112
113
114
114
114
113
112
112
112
111
110
110
110
109
108
108
109
109
109
110
111
112
112
113
113
115
117
118
119
120
120
120
120
120
119
119
118
117
116
116
117
118
120
122
122
122
121
119
117
116
114
114
115
116
119
121
122
121
119
118
116
116
116
115
114
112
110
109
108
107
106
105
105
104
104
103
103
103
104
105
107
110
113
113
112
111
111
111
112
113
115
118
121
123
125
128
131
134
136
138
138
137
137
136
135
134
133
131
130
128
126
125
125
124
123
123
122
123
123
123
123
123
123
123
123
122
122
122
122
122
122
122
121
121
120
119
117
114
112
112
113
118
128
144
167
195
222
243
245
245
245
237
203
158
115
86
70
68
72
80
88
94
99
103
106
109
112
113
114
116
117
118
118
118
116
113
111
111
111
112
114
115
117
118
119
119
119
120
121
121
122
123
123
122
122
121
121
122
122
124
125
127
127
126
123
120
118
118
119
121
123
124
125
127
128
129
130
131
132
133
134
135
137
139
141
143
144
145
147
148
150
151
154
156
158
160
162
164
165
165
165
165
164
164
163
162
162
162
161
159
157
153
149
145
142
138
135
133
131
128
126
124
123
121
119
118
116
114
113
112
112
111
110
110
110
110
110
111
111
111
112
112
112
113
113
113
113
113
111
110
109
108
108
109
109
108
108
107
107
107
107
108
109
110
111
112
112
113
114
115
116
118
119
118
118
117
116
114
112
110
108
107
106
106
107
108
109
110
111
111
112
112
112
113
113
114
114
114
114
114
115
115
115
115
115
115
115
115
115
115
115
115
115
115
114
114
114
114
115
115
115
116
116
117
118
118
118
119
119
120
121
123
124
126
130
134
136
135
132
128
123
119
117
116
115
115
115
115
115
115
115
114
114
113
112
112
112
112
112
112
113
113
114
114
114
115
115
115
115
115
115
115
114
115
114
114
113
112
110
109
109
111
116
129
151
178
207
234
245
245
244
233
198
151
108
78
61
57
62
70
80
90
98
103
108
112
115
116
115
114
112
111
110
110
111
111
112
112
113
114
114
115
115
116
116
117
117
117
117
118
118
119
121
123
123
124
125
126
127
127
126
125
124
122
121
120
120
121
123
124
126
127
128
129
130
131
132
133
134
135
136
138
140
141
143
144
146
146
148
149
150
152
153
155
156
158
159
160
162
163
164
165
166
167
166
165
164
161
159
157
154
152
150
147
145
142
139
136
133
130
128
125
123
121
120
118
117
116
115
114
113
112
112
112
111
111
110
110
110
110
110
111
111
111
112
112
113
113
113
113
113
112
112
112
113
113
112
111
110
110
110
110
111
112
112
112
113
113
113
114
115
115
115
115
116
116
116
116
116
117
116
117
117
117
118
119
119
119
120
120
120
121
120
120
118
116
114
114
113
113
114
114
114
115
115
116
116
116
117
117
116
117
116
116
116
116
117
116
117
117
117
117
117
117
117
116
115
115
116
117
118
118
118
117
117
116
115
115
114
114
113
114
115
116
117
117
118
119
120
121
122
123
124
124
123
123
123
124
125
127
128
129
129
128
127
126
125
124
123
122
121
121
120
119
118
118
116
116
115
115
115
115
115
116
116
116
116
117
117
118
119
120
121
122
121
119
117
114
112
109
107
105
106
110
118
131
151
177
205
230
245
245
245
243
220
178
132
95
72
63
65
73
83
94
102
108
113
116
118
119
119
120
120
120
120
120
120
121
123
126
128
125
119
110
103
98
98
100
103
107
111
113
115
116
117
118
118
119
119
120
120
121
121
122
123
124
124
125
125
126
127
127
128
128
129
130
130
131
132
133
134
134
135
136
138
139
140
142
143
145
146
148
149
150
151
153
154
155
156
156
157
157
158
159
160
161
161
162
162
162
161
160
158
156
154
151
148
146
143
140
136
133
131
130
128
126
123
120
117
114
113
113
112
112
112
112
112
112
112
111
110
110
110
109
109
110
110
110
110
110
110
110
110
111
111
111
112
112
112
112
112
112
112
112
112
113
113
113
113
114
114
115
115
116
116
116
117
118
120
122
124
123
121
118
114
110
109
109
111
112
113
114
115
115
116
116
116
116
117
116
116
117
117
117
117
117
116
117
116
116
116
117
117
116
116
116
116
115
115
115
115
115
115
115
115
115
115
115
115
116
117
117
118
118
118
117
116
116
116
117
118
118
117
115
114
112
112
112
113
115
116
117
118
117
116
115
114
114
114
115
114
115
115
115
115
115
115
116
116
117
117
118
117
116
115
114
114
114
115
116
117
117
116
116
115
115
115
116
117
118
119
120
120
121
120
120
119
119
119
119
119
121
123
125
127
127
127
127
126
124
123
122
121
120
118
117
116
116
115
114
113
113
112
113
113
114
115
115
114
114
113
113
112
112
112
113
113
113
114
114
114
113
111
109
107
106
108
113
124
142
166
194
220
243
245
245
244
226
186
139
97
70
57
55
61
71
81
91
97
102
106
108
110
112
113
113
113
113
113
113
114
114
115
116
116
116
116
116
116
116
116
117
118
118
119
120
119
119
119
118
118
119
119
120
120
121
121
122
122
123
124
124
125
125
126
126
126
127
128
129
130
131
133
134
136
137
138
139
140
140
141
141
141
142
143
144
146
148
150
152
153
154
156
157
158
159
160
160
161
161
162
163
163
162
161
160
158
156
153
150
147
144
141
138
135
132
129
127
125
123
121
118
117
116
115
114
113
112
111
111
110
110
109
110
109
110
110
110
110
110
110
110
110
109
109
110
110
111
112
112
112
113
113
113
113
113
113
114
115
115
115
114
113
112
111
111
111
112
112
113
113
114
114
115
115
115
116
116
116
116
117
117
117
118
118
117
117
117
117
117
118
117
117
118
118
118
118
118
118
118
118
118
119
119
119
119
120
120
121
122
122
122
122
121
120
118
117
116
116
116
117
117
118
118
118
119
119
119
119
119
119
120
120
121
121
122
122
122
123
123
124
125
125
126
128
129
131
132
132
132
130
128
126
126
126
125
125
124
122
121
120
119
118
117
116
116
115
115
115
115
115
116
116
116
116
116
116
116
117
118
118
119
120
121
122
123
122
120
118
117
117
120
128
143
166
193
219
241
245
245
242
219
178
133
94
70
60
62
70
80
92
101
109
116
123
128
132
133
130
126
122
118
116
115
114
112
110
109
108
108
109
110
111
112
113
114
115
116
117
119
120
122
123
124
124
124
123
123
122
123
124
125
125
126
127
128
127
127
127
128
129
130
130
131
132
132
133
135
136
137
138
140
141
142
143
145
146
148
149
150
151
153
154
156
157
159
160
162
163
164
165
166
167
167
167
166
166
164
162
160
158
155
152
149
146
143
140
137
134
131
128
125
124
122
121
119
118
116
116
115
114
113
113
113
113
114
114
114
113
112
110
108
106
105
105
106
107
108
109
109
110
110
110
111
111
111
111
111
111
111
112
113
113
113
113
113
113
113
114
114
114
114
114
114
113
113
113
113
113
113
113
114
114
114
114
114
113
113
113
113
113
113
113
113
112
111
110
110
110
111
112
112
112
112
112
111
110
110
109
109
110
111
112
114
114
115
116
116
115
114
112
109
107
106
106
107
109
110
109
107
105
104
104
104
105
106
107
109
110
112
114
116
116
116
115
114
115
116
117
119
121
122
123
124
123
122
121
121
120
120
119
117
116
115
114
113
112
112
112
113
114
116
118
119
119
117
117
118
118
117
113
110
106
104
103
103
105
107
109
108
106
102
99
97
99
104
114
130
154
182
209
234
245
244
243
224
184
136
94
67
54
52
59
69
79
88
95
100
103
106
108
110
111
111
111
111
111
110
110
111
112
112
113
113
114
115
116
116
116
116
116
116
115
116
116
115
115
115
115
116
116
117
117
118
118
118
118
118
119
119
120
120
121
120
120
120
120
120
120
121
122
123
125
126
127
129
130
130
131
131
132
133
134
136
137
138
139
140
141
141
140
138
138
137
138
139
142
145
148
150
152
154
153
152
150
147
145
143
140
138
136
133
130
128
126
124
122
121
119
118
117
116
115
114
112
111
109
108
107
106
106
107
107
108
109
110
111
111
112
112
111
111
111
111
111
112
114
116
118
119
120
120
120
119
118
116
116
116
117
119
121
123
123
124
124
123
123
123
123
123
123
123
122
122
122
122
123
125
127
127
126
124
122
121
121
122
122
122
121
120
118
116
115
115
115
114
115
115
116
117
118
118
119
119
119
119
120
120
121
122
124
125
126
128
129
130
132
132
132
131
130
130
131
132
132
131
129
127
126
126
127
128
126
124
119
114
111
109
108
110
111
113
115
117
118
119
120
120
120
120
120
121
121
121
121
119
116
115
115
119
126
136
149
167
189
211
232
245
245
244
229
194
150
109
81
68
67
74
84
94
103
109
113
117
120
121
123
123
123
122
121
121
121
120
121
121
121
121
121
122
122
122
122
122
123
124
124
125
125
125
125
125
124
125
125
126
126
125
126
126
127
128
129
129
129
129
128
127
126
126
127
128
130
134
136
136
135
133
132
131
131
132
135
139
144
150
156
160
162
162
161
159
157
157
159
162
165
168
169
168
165
162
160
160
160
160
160
159
158
156
153
150
147
145
144
142
139
136
135
133
132
131
130
128
128
127
126
125
125
125
125
124
124
123
122
121
120
120
119
119
118
118
117
117
116
116
116
116
117
120
124
126
127
126
123
119
115
113
112
113
114
114
114
114
114
115
116
116
116
116
116
116
116
116
116
116
116
116
116
116
115
115
115
116
117
117
117
117
118
119
120
122
123
124
125
126
126
126
127
127
128
129
130
130
131
131
132
133
133
134
134
134
134
134
134
134
135
135
135
136
138
138
139
139
138
137
135
134
132
131
130
129
128
128
126
126
124
123
122
121
120
119
119
119
119
119
120
120
120
121
120
120
120
120
120
120
120
120
120
120
119
117
115
113
113
116
124
137
156
181
207
231
245
245
245
235
203
159
115
83
65
59
62
70
80
89
96
102
106
110
112
113
112
112
112
111
110
110
110
110
111
111
111
111
111
111
111
111
112
112
112
112
112
112
113
113
113
113
113
113
113
114
115
116
116
117
118
119
119
119
119
119
119
119
119
120
121
122
123
123
124
124
125
126
127
129
131
133
135
137
139
140
141
141
143
144
144
145
146
147
148
149
150
151
153
155
158
159
160
158
154
150
145
141
138
134
131
127
124
121
118
115
112
110
107
105
104
102
100
98
97
96
96
95
94
94
94
94
94
94
95
95
95
95
96
96
97
97
98
98
99
99
100
100
102
102
103
103
104
104
104
103
102
102
101
102
103
105
107
108
108
107
104
100
96
92
90
89
89
90
91
93
93
94
95
95
96
97
97
97
97
97
97
98
99
101
103
104
105
106
108
109
111
112
114
116
117
118
119
120
121
122
122
121
120
119
117
116
116
117
118
118
116
114
111
109
108
106
105
104
104
104
105
105
104
102
100
98
98
99
100
101
102
102
102
102
102
101
100
100
100
99
97
96
97
99
104
115
134
158
187
216
240
245
245
244
225
185
136
92
62
48
46
55
67
79
88
95
100
104
107
110
112
114
116
117
117
117
118
118
119
120
122
123
123
123
122
121
120
119
119
119
119
120
121
121
121
122
122
123
124
125
126
127
127
128
129
130
130
130
130
130
130
130
130
132
133
134
135
135
136
137
137
139
141
143
145
146
148
149
151
153
154
155
157
158
159
160
161
162
163
164
164
164
164
164
166
168
171
174
174
174
171
166
160
154
147
142
139
137
135
134
131
128
124
120
117
114
111
109
107
106
105
104
103
102
103
103
103
104
105
106
106
107
109
110
112
113
115
116
117
117
117
118
118
119
119
120
120
121
122
124
125
125
125
125
125
127
128
129
127
125
122
119
118
118
120
121
122
124
125
126
126
126
125
125
125
125
125
126
128
129
130
132
134
135
134
132
129
127
126
125
125
125
126
127
128
128
129
129
130
130
132
133
135
136
136
136
135
133
131
129
126
124
122
120
119
118
118
117
117
117
117
117
117
117
116
116
115
115
114
114
115
115
116
117
118
119
119
119
120
122
123
124
122
119
117
116
118
124
136
153
176
202
226
243
245
245
244
225
186
139
99
72
61
62
69
79
89
97
103
108
111
113
115
117
118
119
120
119
118
118
119
121
122
122
120
117
112
108
105
104
106
107
109
112
115
116
118
119
120
122
123
124
125
126
127
128
128
129
130
130
129
130
130
131
131
132
132
132
133
134
135
136
137
138
138
138
139
139
140
142
144
146
148
151
152
153
153
153
153
153
153
153
154
156
157
159
160
161
160
160
161
160
160
159
158
157
154
150
146
142
139
136
133
131
129
128
128
127
126
123
118
112
107
102
99
99
99
100
102
102
102
103
103
103
102
101
102
102
103
104
105
105
105
105
105
105
107
109
110
112
113
114
115
116
116
115
114
113
112
111
111
110
109
109
108
107
106
105
104
103
103
103
104
105
106
107
108
110
112
114
116
119
122
124
126
128
130
130
129
127
125
123
121
120
120
121
124
126
128
129
130
130
130
130
130
130
130
130
129
129
128
126
124
121
120
119
120
121
123
125
125
123
119
115
112
109
108
108
108
109
110
110
110
110
111
111
111
110
110
110
108
106
104
102
102
104
109
119
137
161
189
216
239
245
245
243
224
184
139
100
74
62
61
66
72
81
90
97
102
106
110
112
114
114
113
113
113
113
113
113
113
113
113
113
114
114
116
117
119
121
121
120
120
119
118
118
117
116
114
111
109
108
109
111
113
116
119
121
122
123
123
124
125
126
126
127
127
127
128
128
128
129
130
130
129
128
127
125
123
122
122
122
123
124
126
128
131
133
134
136
137
139
140
142
144
145
147
148
148
148
148
147
146
144
142
140
138
135
133
130
128
126
124
122
121
119
117
115
114
112
110
108
108
108
107
106
106
106
107
109
110
112
112
111
110
107
106
104
103
102
101
100
100
102
104
105
106
106
106
106
107
107
108
108
110
111
111
111
112
111
111
111
111
111
112
113
114
116
120
123
126
126
124
122
121
119
117
114
112
109
108
107
107
108
109
111
113
115
118
119
120
121
123
124
125
125
125
125
125
124
124
124
123
123
122
121
121
120
120
120
121
121
122
123
122
122
122
122
122
121
120
119
117
116
115
114
112
110
110
109
108
108
107
107
106
104
101
98
97
98
103
114
131
155
182
210
235
245
245
244
233
198
151
107
76
59
54
58
67
76
85
92
96
99
101
103
105
106
107
109
111
113
113
112
111
108
107
106
105
107
110
112
113
113
112
109
106
104
104
103
103
103
104
105
107
108
111
113
115
116
117
118
120
122
123
126
129
133
136
138
140
141
142
143
144
145
145
144
142
140
138
137
137
137
138
140
141
143
144
145
148
150
152
154
156
159
162
166
169
172
174
175
176
175
173
170
167
164
160
156
152
149
145
142
140
138
136
134
134
133
132
131
129
128
126
125
124
124
124
123
122
121
121
122
124
125
126
126
126
126
125
125
125
124
123
122
119
117
115
114
114
114
114
114
114
114
113
113
112
113
114
117
120
124
126
125
121
116
113
112
111
112
114
114
112
107
102
99
97
98
100
103
105
107
109
110
110
111
112
112
112
112
112
113
113
115
117
118
119
119
120
120
120
120
120
120
120
120
120
120
120
120
120
120
121
121
122
124
125
126
125
123
121
119
119
119
119
118
115
111
108
106
105
104
105
105
105
105
105
106
105
104
104
103
103
103
103
103
102
101
100
100
101
102
103
104
105
106
106
105
105
107
114
126
145
169
197
221
240
245
244
244
227
190
145
105
78
67
66
73
83
93
101
108
113
117
120
122
122
122
122
122
122
122
123
123
123
123
123
123
123
123
123
124
124
124
124
124
124
124
125
125
124
123
123
122
123
124
125
126
128
128
129
130
130
131
131
132
132
132
132
133
133
133
134
135
136
137
139
141
143
145
147
149
153
156
159
162
162
160
158
154
151
149
149
149
151
153
155
158
159
160
162
163
164
164
163
162
160
157
154
151
149
146
142
139
136
133
130
127
124
121
119
117
115
114
113
113
113
114
114
115
117
117
118
119
120
119
118
117
116
114
112
111
110
109
109
109
109
110
110
110
110
110
110
111
110
111
111
112
112
112
113
113
114
115
116
118
119
120
122
123
124
124
125
127
129
130
132
131
129
125
121
117
114
112
112
114
114
115
115
114
113
113
112
112
112
112
112
112
112
113
113
113
114
116
120
125
131
135
135
132
128
125
126
126
126
124
119
114
110
108
107
109
111
113
116
117
118
119
120
120
120
120
120
122
124
125
126
125
124
123
123
124
125
125
125
125
124
123
122
122
121
120
119
118
118
118
119
119
120
120
120
119
119
118
118
117
117
117
118
121
126
132
133
130
122
113
106
102
101
104
109
119
136
159
187
212
235
245
244
240
215
174
129
91
68
58
60
68
78
88
96
103
107
110
112
113
113
112
112
112
112
112
112
112
112
112
112
112
112
112
111
111
112
112
111
110
110
109
110
110
110
108
106
103
102
102
101
98
95
92
89
88
89
91
95
99
103
106
109
111
114
116
120
123
126
130
133
135
137
138
139
140
142
144
146
148
148
148
149
150
150
151
152
153
156
159
163
165
166
165
163
163
163
164
166
166
166
165
162
160
157
155
153
151
148
146
143
139
136
133
131
129
127
126
124
123
122
121
120
119
118
118
117
118
118
119
120
120
120
121
121
121
120
119
118
116
114
111
108
105
104
103
103
104
105
106
106
107
109
110
112
113
112
111
110
109
108
108
110
111
114
117
118
119
118
117
117
117
118
118
119
119
119
118
116
114
114
114
115
116
116
116
115
112
106
99
93
88
85
84
85
87
88
90
93
95
97
99
100
101
103
105
107
109
111
113
114
115
115
116
116
117
118
118
120
121
123
124
124
124
123
122
125
129
133
134
132
126
118
112
107
105
105
108
111
115
119
121
123
124
124
124
124
124
124
125
124
125
125
126
128
130
133
135
137
139
139
138
137
136
135
134
135
136
138
140
140
139
135
128
120
112
106
101
99
99
100
102
104
106
107
108
108
109
110
111
112
112
111
111
109
108
105
104
104
106
111
122
138
162
189
216
240
245
245
244
230
191
142
100
76
70
77
89
98
99
95
90
89
92
98
103
107
109
110
109
109
109
110
111
112
114
115
116
117
118
118
119
120
120
120
121
121
122
123
124
125
126
127
128
129
130
131
131
131
132
132
133
133
134
135
135
135
136
137
139
140
141
141
141
140
141
143
146
147
148
149
151
153
155
155
154
152
150
149
149
150
152
153
155
156
156
157
158
159
159
159
160
161
162
162
162
161
160
157
154
150
146
144
142
139
137
134
132
130
128
125
121
117
111
106
102
98
95
93
93
94
94
94
94
94
93
93
93
94
95
97
99
101
102
103
104
104
104
105
105
105
106
106
106
106
106
105
105
106
109
111
114
116
117
118
119
119
118
116
113
109
106
103
102
101
100
101
102
103
103
104
105
105
106
107
109
110
112
114
115
117
118
119
121
125
129
133
135
135
132
128
123
121
121
122
124
123
120
117
115
114
114
116
117
119
120
121
122
124
124
125
126
126
126
126
126
126
126
127
128
129
129
129
129
129
129
129
129
129
128
128
128
128
128
128
128
128
128
128
128
128
129
129
129
129
129
129
128
127
126
126
126
127
128
129
129
129
130
131
132
134
135
136
137
140
143
146
148
146
141
134
127
123
122
123
125
125
125
124
123
123
123
122
122
122
121
121
120
120
120
120
121
121
122
122
123
123
122
122
122
123
123
123
123
122
122
120
117
115
115
118
125
138
158
183
211
235
245
245
245
243
219
178
133
96
74
65
67
75
85
94
101
106
111
114
117
118
119
119
119
119
120
120
121
120
120
119
117
116
116
116
116
116
116
117
118
119
119
119
120
120
120
119
119
119
119
119
119
120
120
121
121
120
120
120
120
120
120
120
120
121
122
122
123
124
125
126
127
128
129
130
131
132
133
134
135
136
138
139
141
142
143
144
146
147
148
150
150
151
151
151
152
153
154
155
156
156
154
152
149
147
145
143
141
139
137
135
132
129
126
123
121
118
117
116
116
116
115
114
113
111
109
108
108
107
107
107
107
108
108
108
108
108
107
107
108
109
109
109
109
108
108
108
108
109
109
110
110
111
111
111
110
108
108
106
105
105
104
104
104
105
105
106
106
106
105
105
105
105
105
106
106
106
107
107
108
108
108
109
109
110
110
110
111
111
111
112
112
113
114
114
115
116
117
118
118
118
117
116
115
115
114
115
115
116
118
119
120
120
119
118
117
117
116
115
114
113
112
111
110
110
109
108
108
108
108
109
109
109
108
107
107
107
106
106
104
102
99
97
96
96
97
97
97
98
99
99
100
100
101
101
102
103
105
107
109
112
114
117
119
120
121
121
122
121
121
120
119
119
118
118
116
114
112
111
110
110
110
110
110
111
111
111
111
111
111
111
111
110
109
107
107
108
109
110
112
113
113
112
110
108
107
108
111
120
134
156
184
213
239
245
245
245
242
215
171
126
92
72
65
67
75
86
96
104
110
114
117
120
122
124
125
125
124
124
124
123
123
122
122
121
121
121
122
124
125
126
126
127
127
128
128
129
130
131
132
132
132
132
133
133
133
133
133
134
134
134
134
134
133
133
134
135
136
137
138
138
140
141
142
143
144
144
146
148
149
152
153
153
153
153
155
156
158
160
162
166
170
172
172
170
166
162
159
158
158
160
161
162
163
163
162
160
158
155
152
148
145
142
139
136
133
130
127
126
124
123
122
123
123
123
123
122
120
118
115
112
110
110
110
110
111
111
111
111
112
112
111
111
111
111
112
113
113
113
113
114
114
114
113
113
113
113
113
113
113
114
114
115
116
117
117
117
118
118
118
118
118
118
119
119
119
120
119
119
118
118
117
117
117
116
115
115
114
114
113
113
112
112
111
111
111
112
112
113
114
116
118
120
121
119
115
112
109
108
108
109
110
111
112
113
114
114
114
114
114
115
115
116
116
116
118
119
119
119
118
117
117
117
117
117
117
118
118
119
120
122
124
124
122
118
115
112
110
109
109
109
111
113
114
115
116
116
117
117
118
119
119
119
120
121
121
123
124
125
128
133
137
140
140
137
133
128
125
123
123
124
123
122
121
120
119
119
119
118
117
117
116
116
115
115
114
113
113
114
114
115
116
116
116
115
114
113
112
111
110
109
109
107
105
105
106
111
121
137
160
187
214
236
245
245
244
228
190
143
100
70
54
51
56
65
75
85
92
97
100
103
105
106
107
108
109
111
112
113
113
114
117
120
121
120
116
111
108
106
105
106
106
106
107
109
110
112
113
114
116
116
117
119
120
122
124
126
128
129
129
128
126
125
125
126
127
128
129
129
130
131
131
132
133
134
136
138
139
140
141
142
143
144
146
148
149
149
149
150
151
152
154
156
158
160
162
163
163
164
164
164
164
164
162
161
159
157
155
152
149
145
141
138
135
132
129
127
125
123
121
119
117
116
114
112
110
109
108
108
109
112
115
118
121
122
118
114
110
105
103
102
103
105
107
109
110
113
115
116
117
116
115
114
114
113
111
109
110
110
110
110
110
109
107
105
104
103
104
104
104
103
102
101
99
97
95
94
92
90
89
88
87
87
87
87
87
87
87
88
87
87
87
88
88
88
88
88
88
87
86
85
85
86
89
93
97
100
102
102
100
98
96
96
98
100
104
107
110
113
116
118
122
125
128
130
132
132
132
132
132
133
134
135
135
136
137
137
137
137
136
136
134
133
131
128
124
119
113
109
105
103
102
102
102
103
103
103
104
103
103
103
103
103
102
101
101
103
109
119
136
160
189
218
242
245
245
245
242
216
174
131
98
77
69
71
77
86
94
100
105
108
110
111
111
111
112
112
113
115
118
120
123
125
128
131
135
139
143
147
149
149
148
146
144
142
140
138
136
135
134
134
134
135
136
138
139
141
142
142
142
142
142
142
142
142
142
141
141
140
140
140
141
142
142
143
144
145
146
148
149
151
153
155
157
159
160
161
162
163
166
167
168
167
167
167
167
168
168
169
170
172
175
178
181
181
177
169
159
150
143
139
137
137
138
137
136
134
131
129
126
125
123
122
122
121
119
118
117
115
114
113
112
112
111
111
112
112
111
111
109
108
107
106
106
106
106
106
106
106
106
107
108
109
111
112
114
115
114
113
113
112
113
114
116
119
120
122
123
123
124
124
124
124
124
124
124
125
125
126
125
125
124
124
124
123
123
125
126
128
129
131
130
128
124
120
118
115
114
112
111
111
111
112
114
116
119
120
122
122
123
124
126
128
131
134
135
135
134
132
130
129
129
131
134
136
137
137
134
129
125
120
117
115
114
115
115
116
116
117
117
117
118
119
119
119
119
119
119
119
119
118
118
117
117
118
119
119
118
118
117
115
113
112
110
111
114
122
137
158
185
211
235
245
245
244
231
195
149
107
78
63
60
66
76
87
96
102
106
109
110
111
112
113
114
114
114
114
114
114
114
115
116
117
117
116
114
114
115
116
116
117
119
124
128
132
132
128
121
115
111
110
112
113
113
113
113
113
113
115
117
120
123
126
127
128
128
128
128
129
130
132
134
136
138
138
141
145
151
158
164
165
159
149
138
129
121
118
118
120
124
128
131
134
136
137
138
139
140
139
138
137
136
136
136
135
134
132
130
127
125
123
121
119
118
117
116
115
113
112
111
110
109
109
108
109
110
110
109
108
106
106
106
107
108
110
110
110
109
109
109
109
109
110
112
113
114
115
114
113
111
109
107
106
105
105
104
104
104
105
105
105
105
105
107
109
112
116
118
116
110
103
97
93
91
90
89
88
87
89
92
95
99
102
103
104
104
104
104
105
105
106
108
109
110
111
112
112
112
113
114
115
117
120
123
126
130
132
134
136
138
139
140
140
139
137
134
132
130
128
126
125
125
125
124
123
122
120
119
119
118
118
118
117
119
122
126
129
131
129
126
120
115
111
109
110
111
112
112
112
112
114
119
128
144
168
195
222
243
245
245
244
227
188
143
105
85
78
80
83
85
86
89
93
100
106
107
106
105
104
104
104
105
106
106
107
109
111
114
116
117
118
119
120
120
121
121
121
121
121
121
121
120
120
121
121
121
120
121
122
122
122
122
123
125
128
132
137
141
143
144
142
140
139
136
132
129
126
126
126
126
128
129
131
133
135
137
139
141
144
145
146
147
145
142
139
136
136
140
145
150
154
156
154
151
152
156
163
169
174
176
172
166
156
147
141
138
135
132
131
131
131
129
126
125
123
122
122
121
121
122
122
122
122
122
123
123
123
122
120
118
117
115
114
115
118
122
125
126
125
122
118
115
113
116
120
126
133
138
141
141
139
134
130
126
126
128
129
128
127
124
120
118
117
117
119
120
120
119
119
119
118
117
116
113
111
110
113
118
123
126
127
127
125
120
118
121
127
134
139
142
144
144
143
142
142
143
143
144
144
143
139
137
138
143
146
148
145
136
122
106
98
100
104
109
113
115
115
115
114
110
109
109
111
114
116
117
115
113
112
115
121
129
136
139
135
124
111
101
96
96
98
105
117
134
157
185
213
238
245
245
244
228
193
152
114
85
68
62
65
72
83
92
100
109
121
136
151
164
168
162
143
119
98
90
97
110
121
122
116
107
102
100
102
105
109
112
113
114
114
113
110
109
110
114
118
121
122
121
120
119
119
119
116
113
115
119
123
127
132
135
136
136
136
136
135
133
130
128
129
133
139
146
151
156
159
161
162
165
167
166
164
161
159
159
158
155
150
146
145
146
149
154
157
159
161
161
161
159
156
154
152
149
146
142
139
136
133
130
129
128
126
124
122
121
120
119
117
116
114
114
113
112
112
113
116
120
123
124
121
116
110
106
103
104
105
106
107
106
105
104
103
103
104
105
107
108
109
109
109
109
109
109
109
109
110
112
113
113
114
114
115
117
120
126
130
131
128
121
113
108
106
106
107
108
104
99
96
96
99
102
106
108
110
113
115
118
120
122
123
124
124
124
123
123
121
120
119
118
117
116
115
118
123
127
129
128
126
125
122
117
110
102
96
93
93
96
99
102
104
106
108
109
109
109
109
109
109
107
105
103
102
102
104
108
116
130
151
177
204
227
244
244
243
228
193
147
103
69
48
41
46
57
71
82
88
92
94
96
97
98
99
100
102
103
105
107
107
108
108
108
108
108
108
108
107
107
107
107
108
108
109
111
113
115
117
119
120
120
118
117
117
119
121
120
118
113
109
107
107
109
110
112
114
117
118
120
120
121
122
123
123
124
125
126
128
130
132
134
135
136
137
138
138
140
142
144
149
153
156
157
156
153
150
149
149
150
151
150
148
146
143
141
140
139
137
135
132
130
128
126
123
120
116
113
110
109
109
109
109
109
109
109
108
108
108
108
108
107
106
106
108
113
116
117
113
105
96
90
89
89
91
95
97
99
100
101
102
102
102
102
102
102
103
103
104
104
104
105
104
104
104
103
104
104
103
104
105
107
109
112
115
116
116
116
115
115
113
109
105
102
101
101
103
105
106
105
104
104
104
105
107
109
110
111
111
109
107
104
102
101
100
99
98
98
98
97
98
99
100
101
103
105
108
110
111
112
111
111
111
111
111
111
109
108
108
108
109
109
108
107
106
107
112
125
147
175
202
225
242
245
243
225
190
147
107
78
60
55
57
65
76
85
93
100
105
107
108
109
108
108
107
107
107
107
107
107
107
108
109
111
113
114
115
114
114
114
114
112
109
106
105
106
106
107
107
107
107
107
108
109
109
110
110
109
109
109
109
109
109
110
111
112
113
114
115
117
118
120
122
125
128
130
131
131
130
130
130
131
133
135
137
139
141
143
144
146
146
146
146
144
142
142
141
141
140
140
139
138
137
136
133
131
129
126
124
121
119
117
114
113
111
109
107
106
104
103
102
100
99
99
99
99
99
98
98
97
96
95
93
92
91
90
89
89
89
89
90
91
90
90
90
89
90
91
93
96
100
103
102
97
90
86
84
82
82
83
85
88
89
89
89
89
89
88
88
89
88
88
88
87
88
89
91
92
92
93
95
96
98
100
102
103
105
107
109
111
112
112
112
111
109
107
105
104
105
105
105
105
105
103
102
100
99
99
99
98
98
98
99
100
102
102
100
97
94
93
93
94
96
97
98
98
98
98
100
102
102
101
100
99
99
101
109
124
148
175
203
227
242
243
230
198
153
108
74
52
44
44
53
64
76
86
94
99
103
106
108
110
114
119
123
124
121
113
104
97
93
93
96
99
103
106
108
109
110
110
111
112
112
113
114
115
115
116
116
117
117
117
117
117
118
119
122
126
130
134
136
136
135
132
130
128
125
123
121
119
117
117
118
121
124
127
130
132
134
136
138
139
141
142
143
145
147
148
150
152
154
157
159
159
160
160
159
158
157
155
153
151
148
145
142
139
136
134
133
132
131
130
128
126
123
119
115
111
108
106
106
106
105
105
104
103
102
101
101
100
99
99
100
102
105
108
110
111
110
109
106
104
101
98
94
91
90
91
94
98
102
106
108
110
111
112
113
114
116
117
117
119
119
119
119
120
121
122
122
124
125
125
126
127
128
128
129
130
131
132
133
134
134
136
137
139
140
141
140
139
138
136
134
131
128
125
123
121
120
119
119
119
118
118
118
118
118
118
118
118
118
118
118
118
119
119
120
121
121
121
121
121
121
121
122
122
122
121
120
120
124
132
145
165
190
215
238
245
245
245
243
218
175
129
94
75
70
75
85
98
109
117
123
128
132
134
135
135
135
134
133
132
131
131
130
130
130
131
131
132
132
133
134
134
134
135
136
136
136
136
137
140
143
147
149
149
147
144
141
139
138
139
141
143
145
147
147
148
149
150
151
151
150
150
149
149
150
151
153
154
155
156
159
163
167
171
173
173
171
167
164
163
163
165
168
170
172
175
176
177
178
178
178
178
177
175
173
171
168
164
161
158
155
152
150
147
144
141
139
137
136
134
133
132
131
130
129
129
129
129
129
129
129
129
128
127
126
125
124
124
124
124
125
126
127
128
129
130
131
131
129
127
123
120
119
119
120
122
125
127
129
130
131
130
130
130
131
131
130
130
130
129
128
127
126
125
124
123
123
122
122
122
122
122
122
123
124
125
126
127
127
128
129
130
130
132
133
135
136
137
138
140
142
143
144
144
143
142
141
140
139
138
137
135
133
132
131
130
129
128
128
128
128
129
131
133
135
135
134
132
129
127
125
124
122
122
122
123
123
124
124
123
120
116
112
110
108
110
118
132
154
182
210
236
245
245
245
238
207
163
120
90
74
72
77
87
98
107
114
119
122
123
124
123
122
120
119
118
118
117
117
117
118
118
118
119
119
120
122
123
125
126
127
128
129
130
131
131
131
131
132
132
132
132
132
132
132
132
132
133
133
133
133
133
134
135
136
136
136
136
137
138
139
141
142
144
145
147
149
151
153
154
155
156
157
157
159
161
164
166
167
168
168
169
170
172
173
174
174
173
171
169
167
164
161
158
154
149
144
140
136
133
131
128
125
122
119
117
115
114
114
113
112
112
112
113
113
113
113
111
109
109
108
109
109
109
110
110
110
109
109
108
108
108
109
109
109
109
108
109
109
110
111
110
111
112
113
113
114
113
113
114
114
115
115
115
115
114
114
115
115
115
115
115
115
116
116
116
117
117
117
117
117
117
116
116
116
116
117
117
118
118
118
119
120
121
122
124
124
125
125
124
123
122
122
122
123
124
124
126
127
128
126
124
120
117
115
115
115
116
118
119
120
120
120
120
119
120
119
119
119
120
120
120
120
120
121
121
123
125
126
126
125
124
123
123
124
125
126
127
128
130
132
135
137
137
136
133
129
125
123
122
121
121
120
119
119
119
118
117
116
114
114
114
115
116
118
118
118
119
118
118
118
118
119
119
119
119
119
119
118
118
117
115
114
113
113
116
122
135
154
180
208
233
245
245
245
243
219
177
131
93
70
61
62
70
79
89
96
101
105
107
109
110
110
110
109
109
109
108
108
108
108
108
107
107
106
106
106
106
106
107
108
108
109
110
111
111
112
112
113
114
115
114
114
113
113
113
113
114
114
114
115
115
116
115
115
116
116
117
118
119
120
123
125
127
130
132
134
137
140
142
145
147
149
150
152
154
157
159
161
161
161
160
159
159
159
160
161
162
164
164
162
158
154
151
149
147
146
144
142
140
138
136
133
130
128
125
122
120
117
115
114
114
114
113
112
111
110
110
110
110
110
111
111
112
112
113
113
113
114
113
114
114
114
114
114
114
114
114
114
114
114
113
113
112
111
111
111
110
110
110
110
110
110
111
112
112
112
112
112
112
112
112
112
112
113
113
113
113
113
113
114
114
114
114
114
114
115
116
117
118
118
118
119
120
122
123
122
121
118
115
113
110
109
109
110
111
112
113
114
115
115
114
114
114
114
114
114
113
113
113
114
115
115
115
116
117
118
120
121
123
124
126
126
128
129
130
131
131
130
129
127
124
123
122
121
121
121
120
120
119
118
118
117
116
115
115
115
115
115
114
114
114
115
115
116
117
117
118
118
118
118
118
118
118
117
117
115
113
110
110
112
118
130
148
173
201
227
245
246
245
244
227
187
139
97
69
55
54
61
71
83
92
99
105
109
112
113
114
114
114
114
115
115
115
116
116
117
117
118
118
119
119
119
119
119
119
119
119
120
120
120
120
120
120
120
120
119
119
118
118
117
118
117
117
117
117
117
118
118
119
120
121
122
124
125
126
127
128
130
131
133
135
137
139
140
142
143
145
146
148
150
151
153
154
155
155
155
154
154
154
155
156
157
158
158
159
159
159
158
156
154
151
147
140
133
126
121
119
118
117
115
112
110
109
108
110
113
113
113
112
109
108
107
107
109
110
112
115
119
123
126
127
125
123
121
120
118
116
110
106
104
104
104
103
102
100
99
99
100
102
104
106
107
107
106
106
106
106
107
108
109
109
109
110
111
111
112
113
113
113
112
112
113
114
117
122
127
132
134
135
132
127
119
110
101
94
91
92
95
100
104
108
111
112
113
114
115
115
115
115
116
117
118
119
120
121
122
124
126
128
130
132
132
131
130
129
127
125
124
122
121
120
118
116
114
113
112
110
109
108
107
106
106
105
105
104
102
102
102
103
102
102
102
102
101
101
100
100
101
102
102
101
97
93
91
93
100
116
139
170
202
232
245
245
245
243
220
178
133
97
74
65
68
78
93
110
121
128
130
128
124
120
117
116
115
115
116
116
117
117
117
117
118
119
120
120
121
122
122
123
123
123
124
124
125
126
126
127
127
127
127
127
127
128
129
130
131
132
133
134
135
135
135
134
134
133
133
133
135
137
140
143
145
147
149
150
150
150
149
146
143
142
142
144
148
153
157
161
164
166
167
168
169
170
171
171
172
171
170
168
166
164
162
159
156
152
148
144
141
138
135
132
129
126
123
121
118
116
114
113
113
113
113
112
112
110
109
108
108
108
109
110
110
111
112
112
112
112
113
114
114
115
115
115
115
115
115
115
116
116
117
117
120
124
130
133
136
134
129
122
115
112
112
113
114
113
109
104
100
100
101
103
107
109
111
112
113
113
113
113
114
114
115
115
115
115
116
116
116
115
114
114
113
112
112
112
112
112
112
113
114
115
116
117
119
121
121
121
122
123
124
125
126
125
123
119
115
110
108
107
108
109
111
113
115
116
118
119
121
123
126
128
130
131
131
130
128
127
125
123
121
119
118
118
118
118
117
117
116
114
114
113
112
112
112
113
113
114
113
113
112
112
113
115
116
115
114
111
108
106
103
100
98
96
98
103
114
131
155
184
210
234
245
245
239
210
164
116
78
58
54
61
73
85
93
94
92
89
87
89
91
93
95
97
99
103
106
109
112
114
116
117
117
117
118
118
119
120
120
120
120
120
120
120
122
122
122
122
123
124
125
126
127
129
132
136
140
145
147
143
133
122
113
109
109
113
118
123
127
130
131
133
134
136
138
140
141
143
145
147
149
150
152
153
154
155
157
159
162
165
168
170
172
175
180
183
185
184
179
172
165
158
154
150
148
147
146
144
142
140
136
132
128
125
121
118
115
114
113
112
111
110
111
110
108
107
105
104
106
110
116
121
124
122
117
109
103
97
95
95
95
96
97
99
100
102
104
104
104
104
104
103
103
103
103
104
104
105
107
110
113
114
115
115
116
115
116
116
116
117
117
116
116
116
115
115
115
116
117
119
121
121
120
118
115
112
111
111
113
114
116
117
119
121
123
125
128
131
133
134
134
133
132
131
130
129
129
128
128
128
128
129
128
128
127
127
126
125
124
123
122
122
123
124
125
125
125
125
125
125
124
124
123
122
123
123
125
128
132
136
140
142
142
140
136
134
132
131
128
123
117
111
108
106
106
106
108
110
111
111
112
112
112
112
111
111
112
112
112
112
113
113
113
113
113
113
113
112
110
109
109
112
118
128
143
163
186
208
229
244
245
244
232
199
154
112
81
64
59
63
71
80
89
97
103
108
113
117
120
122
124
126
127
129
130
130
128
124
120
116
113
111
109
109
110
112
114
115
116
116
116
117
117
118
119
119
119
119
119
119
120
121
122
123
125
125
126
126
126
127
128
129
130
131
132
133
133
134
134
135
135
135
136
136
136
137
138
139
140
141
142
144
146
148
149
150
151
153
154
154
155
155
156
156
156
156
156
156
155
153
152
149
146
144
141
138
135
132
128
124
121
117
114
111
109
107
105
104
104
104
104
105
105
106
106
107
106
106
106
106
107
107
108
108
109
109
110
112
113
114
114
115
116
118
118
118
116
114
110
108
106
106
106
106
106
106
107
108
108
109
111
112
113
114
114
114
114
113
113
113
113
113
113
113
113
113
113
112
112
112
112
112
112
112
112
112
111
111
111
110
110
110
109
109
109
109
108
108
108
108
109
109
110
111
112
112
113
114
115
116
116
116
115
113
112
111
111
111
111
113
116
118
120
122
124
124
124
123
123
123
123
122
121
121
121
120
120
120
120
120
120
120
120
120
120
120
120
120
120
120
120
119
119
118
118
118
118
118
119
118
117
115
114
111
110
111
114
123
137
159
187
214
239
245
245
244
237
203
157
112
81
63
59
64
72
82
91
98
102
105
108
109
109
109
108
108
108
109
110
112
115
117
119
120
120
119
116
113
109
106
105
105
106
108
110
112
112
113
114
115
115
116
118
118
119
120
121
122
123
124
124
125
125
125
125
124
124
124
124
124
124
125
127
128
130
132
133
135
136
138
139
140
141
143
145
147
149
150
151
153
154
154
155
157
158
159
160
161
161
162
161
161
160
158
156
154
152
150
148
146
144
142
139
137
134
130
125
121
117
113
111
109
109
108
108
108
109
109
108
108
107
108
108
109
109
110
110
111
112
113
114
116
116
117
117
117
118
118
118
118
118
118
119
119
119
119
119
120
120
121
121
121
121
121
120
120
119
119
119
120
121
122
122
120
118
118
118
118
118
118
117
117
116
116
116
117
118
119
120
121
121
121
121
121
121
121
122
123
122
120
119
118
117
117
118
118
119
119
119
119
119
119
119
120
120
120
120
119
119
118
118
118
118
118
118
118
119
121
123
124
124
124
124
124
125
125
125
126
127
128
129
131
131
130
129
128
126
125
124
123
123
122
122
121
121
120
119
118
116
115
114
114
113
113
113
114
114
115
116
118
120
121
121
121
121
120
119
116
112
108
105
101
98
98
99
104
113
128
151
178
205
230
245
245
244
235
201
155
111
78
59
54
59
68
79
90
99
106
112
117
121
123
126
128
130
130
127
122
117
114
113
113
115
116
117
119
119
119
120
120
120
120
120
122
123
123
124
125
125
126
126
126
126
126
126
127
127
127
127
127
127
128
128
129
